# intensity: 0.967660836677645
# background: 2.377757229873e-09
#           Q (1/A)             dQ (1/A)                    R                   dR               theory              fresnel
  0.0100976750254631 8.94795855025937e-05     0.93124911323173  0.00862415072380786    0.967380117548218    0.929294491544743
  0.0105422083288431 9.26017716694294e-05    0.947038219250378  0.00874612473448181      0.9654872597287    0.711699237915548
  0.0109720593318343 9.56316662455453e-05    0.942354168621822  0.00870015096257847     0.95940225246617    0.327606102066813
  0.0114165619015694 9.87749341458298e-05    0.946147815501342  0.00872741042374874    0.953841072708894    0.191852765238619
  0.0118434829637408 0.000101802681825692     0.94113785878033  0.00869056615801293    0.948021186982066     0.13439307277467
  0.0122879669070244 0.000104963352583564    0.950002422670989  0.00876709131881987      0.9407669676237   0.0990142777541877
  0.0127207692712545 0.000108048445380633    0.948261858536957  0.00873480166214589     0.93200525968333   0.0764367183525052
  0.0131652429699898 0.000111223778253412    0.922049570416205  0.00854949561999018       0.920625391552   0.0602856837546908
  0.0136009994894266 0.000114343183406141    0.914354083329627  0.00849324673824857    0.906316212361192    0.048776836652826
   0.014045431278646 0.000117530648781522    0.903133516284981  0.00840696366798832     0.88742471718819   0.0399745794165316
  0.0144841149449348 0.000120682327839588    0.874346399966104   0.0082245978922931    0.863111061236055   0.0332977004731068
  0.0149285960942507 0.000123880747712862    0.838453592857205  0.00794407795677243    0.830917065134822   0.0279937413508698
  0.0153584899380803 0.000126978714203936    0.812734662792899  0.00777372162116445    0.790368850177119   0.0238967887763688
  0.0158058758825064 0.000130207089030339     0.74130477484216  0.00722426888008932    0.735867915140119   0.0204457862753923
  0.0162357520312071 0.000133312999205581     0.67045621613384  0.00671327826880056    0.669417946588232   0.0177287886405052
  0.0166802443563938 0.000136528270739724    0.591525446996473  0.00612721112464954    0.584940823829478   0.0154023850880574
  0.0171130411326885 0.000139662318733363    0.475386311041537  0.00523255764363016    0.488560842032435   0.0135097056584113
   0.017560450360179 0.000142905475587019    0.372946012202883  0.00443816910617917    0.379686236318514    0.011862559580667
  0.0179932322353125 0.000146045583051335    0.267906748090492  0.00358082214890883    0.275123461486123   0.0105110443090727
  0.0184377077966929 0.000149209254178506    0.171668765252974  0.00270715959558421    0.180664504003423  0.00932535703365818
  0.0188646260648966 0.000151801556972429     0.11058454572889  0.00211337857362894    0.112107193205281  0.00834565896770601
  0.0193120259791613 0.000154533594037251   0.0720097300352674  0.00167285249287101   0.0679599560370897  0.00745815962142198
  0.0197477731853724 0.000157208795985361    0.061388383689342  0.00153405059584355   0.0500120559640505  0.00670786836635338
  0.0201951861381531  0.00015996959148726   0.0618670039554854  0.00153913410418245    0.050858406039482  0.00603622543257189
  0.0206309147179127 0.000162671192538097   0.0710467625468238  0.00164739127783172   0.0630566950630069  0.00546328278472177
  0.0210695490241051  0.00016540306052953   0.0881360856284563  0.00185667107189336   0.0805195367994719   0.0049555455813775
  0.0214994288980961 0.000168091752173905    0.105712900714044  0.00207021457418792   0.0984180211343749  0.00451553241148371
  0.0219438672065735 0.000191024916855853    0.114271598341552  0.00119455010819887    0.114609997594483  0.00411628801274862
   0.022826986387372 0.000198723759050931    0.133882521254535  0.00130159723754277     0.13644665595958  0.00344507505711235
  0.0236926041543484 0.000206280972437685    0.142154104482979  0.00134188022251288    0.142512254910738  0.00291482234449277
  0.0245756395161152 0.000213943333204586    0.135284269773611  0.00128523629718637    0.134643469078488  0.00247692561299452
  0.0254470705986023 0.000221703758271679    0.118046843737756  0.00116276930699132      0.1166707872332  0.00212382793569987
  0.0263243243098259 0.000229126501304735   0.0922130510145352 0.000983205476991476    0.092699740533879  0.00183074245562094
  0.0272073857486248 0.000236824829377245    0.069141724126706 0.000817271621782076   0.0670908798095484  0.00158572832054545
  0.0280759036540985 0.000244636988825078   0.0446861819689107 0.000624230371706679   0.0442815642082694  0.00138405985872808
  0.0289560649544001 0.000251971954910976   0.0253876976220391 0.000451518179591262   0.0262500352168422  0.00121178372660162
  0.0298362318426371 0.000259631686068077   0.0136551252278589 0.000322009292374698   0.0144934040508021  0.00106579786532465
  0.0307105109095573 0.000267484313766815  0.00751250936378801 0.000234027142282274  0.00870962802142485 0.000942175393756588
  0.0315906777977943 0.000274945517941933  0.00719943567005599 0.000226433356378762  0.00744686948897362 0.000835503023688317
  0.0324679352343082 0.000282819204045126  0.00758370521811663 0.000205151662514663  0.00892964747648475 0.000743940804192396
  0.0333451293408871 0.000290530053358959   0.0107466877482524 0.000243584764137924   0.0114299832905831 0.000664710954737019
  0.0342194251716137 0.000297859367903768   0.0137013402991662 0.000273661219649434   0.0136298482043854 0.000596063905680025
  0.0350995548069477 0.000305680888721688   0.0158814080025576 0.000293586039348406   0.0147625225649811 0.000535755900789611
  0.0359680019319057 0.000313131412610365   0.0157730181201977  0.00028905394112798   0.0145312169943045 0.000483605786265194
   0.036848146468401 0.000320898964609113   0.0146090652247543 0.000276269208454799   0.0130344018217168 0.000437121157634602
  0.0377136319875717 0.000328581073906534  0.00979029471755316 0.000201360302714875   0.0106778844092733 0.000396775125496698
  0.0385996252298355 0.000336064958535839  0.00757553208024251 0.000174638043004409  0.00784075276449558 0.000360218125108915
  0.0394767932593822 0.000343721171088787  0.00540158150313791 0.000145457947915826  0.00509236162707848 0.000328101086035811
  0.0403481386601925 0.000351336175408717  0.00283433745361905  0.00010373226200909  0.00280368385913781 0.000299691467711154
  0.0412253364920616 0.000358902151028724  0.00128704629684119 6.93355014269003e-05  0.00117840772643547 0.000274151731141292
  0.0421054288744927 0.000366759464370773  0.00040544865594708 3.90646700294597e-05  0.00030110630745091 0.000251218171041229
  0.0429767481982708 0.000374265823618197 0.000256411905247594 3.12555708927451e-05 0.000101432905830393 0.000230843142452688
  0.0438642874360085 0.000381937821992783 0.000504528185814026 2.09669257414046e-05 0.000400866975301325 0.000212179598562528
  0.0447332412004471 0.000389656090610967  0.00103260361610264 3.42615759746028e-05 0.000961266822672371 0.000195707522844697
  0.0456104166805744 0.000396996319571379   0.0016307718067498 4.27651936811048e-05  0.00157607126525106  0.00018068018801299
  0.0464897826313972 0.000404775785562643  0.00223448935078351  4.9621352271978e-05  0.00206427619871933 0.000167042123395107
  0.0473691187798977 0.000412555145529936  0.00243660675347302 5.14398884092591e-05  0.00231448300488751 0.000154673008184125
  0.0482462495565414 0.000420030094266406  0.00237729900579418 5.04832849746871e-05  0.00229166994172499 0.000143459487831621
  0.0491189770400524 0.000427816833237014    0.001769724710851 4.08655526862124e-05  0.00202883186013308 0.000133298256497796
  0.0499983131885529 0.000435469701608782  0.00140454900114673 3.59829926883125e-05  0.00159985289731072 0.000123957836174152
  0.0508732311427593 0.000443001028970592 0.000986610567679581 2.97792191801564e-05  0.00111125533216795 0.000115465117802792
  0.0517459735274315 0.000450760671609349 0.000588773480997378 2.28880204347431e-05 0.000663902062633148 0.000107709586427455
  0.0526274517178535  0.00045807665981244 0.000288771996986586 1.60474842404083e-05 0.000335775669579988 0.000100528963796747
  0.0535089559853077 0.000465870805770564 0.000159870926504618 1.20131039092111e-05  0.00018218125249934 9.39382010737346e-05
  0.0543794669210911 0.000473601055160108  0.00020266867272996 1.32813695579776e-05 0.000213605262728802 8.79535546332557e-05
   0.055258747190237 0.000481131201869689 0.000424026959550512 1.77925853716899e-05 0.000405540661259697 8.23867276453028e-05
  0.0561380349099636 0.000488909562985035 0.000732091805536619 2.32874376214759e-05 0.000706537772401245 7.72545455034358e-05
  0.0570129118859768 0.000496422168328545   0.0010931797481838  2.8411553650038e-05  0.00104840532253467 7.25401311480876e-05
  0.0578943639993668 0.000503981286620987  0.00135869284659102 3.15531692966417e-05  0.00136793323067433 6.81497740083562e-05
  0.0587779954075813 0.000511929998997927  0.00166414252508605  3.4881433407966e-05  0.00160593831647678 6.40777205657077e-05
  0.0596550591289997  0.00051944423633691  0.00175379568565181  3.5659950691851e-05  0.00172347719197257 6.03329156566142e-05
  0.0605233274400234 0.000527018239980929  0.00183396767123933 3.63519019572081e-05  0.00170960313193284 5.68924341126376e-05
     0.0614003688097 0.000534780354995215  0.00154713803562099 3.14277082230204e-05  0.00157327639213799 5.36635208768733e-05
   0.062277402728796 0.000542091412725664  0.00125724967858225 2.80355469096779e-05  0.00134209909528491 5.06609947860978e-05
   0.063158817589283  0.00054999246479794 0.000997726401314707  2.4721306288123e-05  0.00105433886059953 4.78527290098209e-05
  0.0640402138233185  0.00055767688717241 0.000751487265896993 2.12510654869015e-05  0.00075548785514163 4.52368226810587e-05
  0.0649194270372391 0.000565138392464289 0.000456864705209044 1.63491518830624e-05 0.000486821098852868 4.28034147842526e-05
  0.0657898336648941 0.000573042700514805 0.000291007173557588 1.29833220915659e-05 0.000279940533259317 4.05539666600473e-05
  0.0666624680161476  0.00058055676323067 0.000144507733083991 8.66666510380245e-06 0.000148078321999178  3.8445635440621e-05
  0.0675394311547279 0.000588083312930543 0.000101833999430655 7.27416313944906e-06 9.40002213640072e-05 3.64634469815185e-05
  0.0684208050370217 0.000595875401853738 0.000109339770129026 7.48277474341955e-06 0.000108101511586988 3.45986133830072e-05
  0.0692999586462975 0.000603390235595893 0.000197505751566912 9.95677536607525e-06 0.000170303246830185 3.28559332187468e-05
  0.0701782405376434 0.000610970989148389 0.000293699709126666 1.08161559238738e-05 0.000255598661881195 3.12233562112076e-05
  0.0710429102182388 0.000618644928252258 0.000314817659725223  2.4668309078921e-05 0.000338139607622779 2.97142615022208e-05
  0.0719198510050774 0.000626170959677605 0.000445851817203578 2.92221192186519e-05 0.000400401023144036 2.82760029967943e-05
  0.0727967917919159 0.000633931375764587 0.000438033735692377 2.76863266144777e-05 0.000428110394998509 2.69238830701655e-05
  0.0736737176775932 0.000641457069474327  0.00047157808585938 2.85582267291665e-05 0.000416709925727857 2.56518694610653e-05
  0.0745681747794151 0.000649232766318501 0.000397474395668184 2.61559011223326e-05 0.000368626068848799 2.44309785796457e-05
  0.0754450783133507 0.000656992649376847 0.000305831181595133  2.2850965220598e-05 0.000295966624447973 2.33037857506773e-05
  0.0763219818472862 0.000664518016020624 0.000205801557645289 1.86916980607079e-05 0.000211862936654649 2.22409784965389e-05
  0.0771813243627548 0.000672153768129233 0.000154409644850908 1.61831923369152e-05 0.000132418527222672 2.12577436820003e-05
  0.0780582129955292 0.000679913318352049 9.04659065901447e-05 1.19018995649804e-05 6.67673450206506e-05 2.03100187181503e-05
  0.0789350792765617 0.000687221685847663 3.97715357237387e-05 8.17245397986894e-06 2.51311766769568e-05 1.94146038399319e-05
  0.0798207074403763 0.000695042709469325 1.74146402792219e-05 5.76325998534662e-06 1.08720549197275e-05 1.85598829401283e-05
  0.0806975588202477 0.000702567289054565 3.44626483228305e-05 7.57283374656378e-06 2.23457853223987e-05 1.77594907684448e-05
  0.0815744027495384 0.000710091707532509 6.14549502391355e-05 9.78768321740443e-06 5.30570569166217e-05 1.70019093561103e-05
  0.0824512392282486 0.000717958524291722 0.000117464292884958 1.32082639891367e-05 9.39517597744611e-05 1.62843666074938e-05
  0.0833280608057976 0.000725608756498315  0.00016395570232214 1.54443585583384e-05 0.000135186944073488 1.56043454318283e-05
  0.0842048674821853 0.000733132690026783 0.000180453557118768 1.55812237818113e-05 0.000167963145052063 1.49595076788881e-05
    0.08507289737463  0.00074082897842469 0.000185650721619041 1.56961887211175e-05 0.000185910247360828 1.43536812495421e-05
  0.0859496966004372 0.000748244351944654 0.000192869110843379 1.59773393423753e-05   0.0001866110465186 1.37726058110092e-05
  0.0868264585733414 0.000756002097739825 0.000191908054454346 1.58592796765601e-05 0.000170638999410151  1.3220709607919e-05
  0.0877032354474068 0.000763759744406773 0.000149062705197457 1.39929857239275e-05 0.000142028744799927 1.26962143754849e-05
  0.0885799899697304 0.000771174614259751 0.000119160176616683 1.24885544521643e-05 0.000107015125696442 1.21975209979166e-05
  0.0894567370414734 0.000779040073475705 9.09775615286178e-05 1.04647523223046e-05   7.272723351982e-05 1.17231328459115e-05
  0.0903422459959984  0.00078653452335277 7.04351275968331e-05 9.23991341016138e-06 4.56021217220685e-05 1.12671998474954e-05
  0.0912189707159996 0.000794165225219649 3.82946927841156e-05 6.91568752076741e-06 3.12332776573928e-05   1.083744623376e-05
  0.0920956805348396 0.000801921955857266 2.78505261134124e-05 5.93855248593272e-06 3.18654632546975e-05 1.04280332302869e-05
  0.0929723829030991 0.000809335964945284 5.21022136985373e-05 7.84844661828113e-06 4.72873335214816e-05 1.00378010205736e-05
  0.0938490852713585 0.000817092341801329 7.60938812604537e-05 9.35472443832366e-06 7.47412798320094e-05 9.66568487327154e-06
  0.0947257727384568 0.000824956755440019 7.87563110564165e-05 9.45780481611336e-06  0.00010950973381749 9.31068445948238e-06
  0.0956024304032326 0.000832370122225134 0.000132080257069999   1.171600593266e-05 0.000145839743700378 8.97185703865951e-06
  0.0964703261852264 0.000840064031323786 0.000156083551060735 1.26587991173331e-05 0.000177666325854501 8.65149500075947e-06
  0.0973469614982605 0.000847477074380011 0.000192056255180765 1.39778712258177e-05 0.000200810065402683  8.3423137259282e-06
  0.0982236117124558 0.000855124323642849 0.000198513154188767 1.41489329512934e-05  0.00021167997702671 8.04683568836377e-06
  0.0991002172231674 0.000862987699147389 0.000179966265750087 1.34128870487093e-05  0.00020907038578534  7.7643586733268e-06
  0.0999768376350403 0.000870400156478637  0.00016346071748318 1.27532466832207e-05 0.000193856311902018 7.49417818861621e-06
   0.100853428244591  0.00087815495752589  0.00015368719281497 1.19493380567617e-05 0.000168663343455925 7.23567801772147e-06
   0.101738780736923 0.000885863233723654 0.000131353433577323 1.10348722428501e-05 0.000137012184955712 6.98582166729307e-06
   0.102615356445312 0.000893275220422789 8.17252243948509e-05 8.70950368052169e-06 0.000103907673534848 6.74898333343493e-06
    0.10349190980196 0.000901029341146389 7.95417140126893e-05 8.56708399888852e-06 7.31779755300405e-05 6.52212341576823e-06
   0.104368470609188 0.000908765396030782 3.80010495833143e-05 5.97442753247328e-06 4.80983137038962e-05 6.30472482803364e-06
   0.105245001614094 0.000916302845745748 3.34080622262107e-05 5.60645377152658e-06 3.06839028824617e-05 6.09632685400765e-06
   0.106121525168419  0.00092405637597025 2.77124818368399e-05  5.1224138761382e-06 2.15248646449008e-05 5.89648393820388e-06
    0.10698926448822 0.000931297316063017 1.33739965544734e-05 3.55440003922034e-06 1.98388515260872e-05 5.70664974391984e-06
   0.107874527573586 0.000939094247716413 2.28008212755051e-05 4.49699571935825e-06 2.38534490556609e-05 5.52081142471177e-06
   0.108742244541645 0.000946785311014563 2.08609809428127e-05 4.31517736269315e-06 3.09941180341608e-05 5.34595508604201e-06
   0.109618715941906 0.000954195621819516  2.6071156980143e-05 4.76781272119242e-06 3.88578511541636e-05 5.17630609796032e-06
   0.110495172441006 0.000961948029016448 3.43214691508308e-05 5.40214617521587e-06 4.51290492286027e-05 5.01334925621873e-06
   0.111371606588364 0.000969700260590969 3.79650140371209e-05 5.66504401472248e-06 4.82159655189644e-05 4.85676832496428e-06
   0.112256810069084 0.000977171752561482 2.58000497470681e-05 4.74720521127102e-06 4.73661351882391e-05  4.7047810961911e-06
   0.113141991198063 0.000985093529094203 3.23477694659857e-05 5.25225740810336e-06 4.26923453116436e-05 4.55870461882528e-06
   0.114018388092518 0.000992628805360403 2.05137797660455e-05 4.12821785633081e-06 3.52199072405546e-05 4.41962490042059e-06
   0.114894777536392  0.00100014591858546 2.86433738757027e-05 4.75074785201616e-06 2.63189553792569e-05 4.28581792975125e-06
   0.115771144628525  0.00100789699219947 1.51329680179255e-05 3.60461942426952e-06 1.75625258813674e-05 4.15704880816162e-06
   0.116647519171238  0.00101541369914175 7.98850465172275e-06 2.81873537415311e-06 1.03778750541864e-05 4.03308260688793e-06
   0.117523863911629  0.00102305626770995 9.23432034293212e-06 2.96524560148011e-06 5.79376213568565e-06 3.91371331779058e-06
   0.118382669985294  0.00103068298194799 5.64181082697015e-06 2.51295218534107e-06 4.28018359719118e-06 3.80099523000638e-06
   0.119258977472782  0.00103819891712789 1.02703703725521e-05 3.08210516928832e-06  5.6483044566857e-06 3.69013899846661e-06
    0.12013528496027  0.00104594888367646 1.27652537336384e-05 3.34753194662427e-06 9.30930861491483e-06 3.58330119659474e-06
   0.121011562645435  0.00105346433856415 1.46099499888479e-05 3.53645805989152e-06  1.4245970973237e-05 3.48030862380497e-06
   0.121887840330601  0.00106110561179863 2.55395619199694e-05 4.44208821147479e-06 1.92974003775577e-05 3.38099528363142e-06
   0.122764103114605  0.00106885484523493 2.01072248285973e-05 4.03195498326807e-06 2.33832773389596e-05 3.28520704292958e-06
   0.123640343546867   0.0010761534389457  2.9906127845852e-05 4.46235459753822e-06 2.57047025293367e-05 3.19279154489484e-06
   0.124516569077969   0.0010840101714109 2.21695892734605e-05  3.8828736180684e-06 2.58697397806535e-05 3.10361147463975e-06
   0.125392779707909   0.0010916505851846 2.61679968313305e-05 4.14184396565624e-06 2.39505133343891e-05 3.01752843198681e-06
   0.126268982887268  0.00109905656516266 2.15493856124721e-05 3.78008244099132e-06 2.04355343146185e-05 2.93441337566656e-06
   0.127145171165466   0.0011069125630896 1.45802751789359e-05 3.17066201406761e-06 1.61178785384809e-05 2.85414761414132e-06
   0.128021329641342  0.00111453413468838 8.89877707366889e-06   2.580895396889e-06 1.19339812141308e-05 2.77661330703275e-06
   0.128897488117218   0.0011219573782649 1.24276053926695e-05 2.93039538925548e-06  8.7799454012588e-06 2.70169719229029e-06
   0.129773616790771  0.00112981260211824 1.35845397919506e-05 3.02111942469229e-06 7.35183351463921e-06 2.62929791572904e-06
   0.130649745464325  0.00113732539427272 2.14097075743643e-05 3.65894558995767e-06 8.01912530320823e-06 2.55931062217153e-06
   0.131525844335556  0.00114496392936325 1.19872705511626e-05 2.84125616897436e-06 1.07748464637269e-05 2.49164289484796e-06
   0.132401943206787  0.00115269233027195 1.57086392555461e-05 3.16244582280388e-06  1.5242402508591e-05 2.42620080635668e-06
   0.133277997374535   0.0011601142303092 2.23035168900952e-05 3.68805291945022e-06 2.07517842637188e-05 2.36289815306316e-06
   0.134162828326225  0.00116779588434973 2.82642093331064e-05   3.944075672574e-06 2.65186210936222e-05 2.30104944361022e-06
    0.13503885269165  0.00117543342882649 3.61908087897952e-05 4.41490838670224e-06 3.15548660720399e-05 2.24179799678407e-06
