# intensity: 0.978459688813082
# background: 1.88661359010275e-08
#           Q (1/A)             dQ (1/A)                    R                   dR               theory              fresnel
  0.0105422083288431 9.26017716694294e-05    0.947038219250378  0.00874612473448181    0.978459707679218    0.978459707679218
  0.0109720593318343 9.56316662455453e-05    0.942354168621822  0.00870015096257847    0.978459707679218    0.978459707679218
  0.0114165619015694 9.87749341458298e-05    0.946147815501342  0.00872741042374874    0.978459707679218    0.978459707679218
  0.0118434829637408 0.000101802681825692     0.94113785878033  0.00869056615801293    0.978459707679218    0.978459707679218
  0.0122879669070244 0.000104963352583564    0.950002422670989  0.00876709131881987    0.976879024756463    0.938534851238662
  0.0127207692712545 0.000108048445380633    0.948261858536957  0.00873480166214589    0.961401787074886    0.580804531029728
  0.0131652429699898 0.000111223778253412    0.922049570416205  0.00854949561999018    0.938160685967249    0.314335207706892
  0.0136009994894266 0.000114343183406141    0.914354083329627  0.00849324673824857    0.916083810029316    0.205625188468425
   0.014045431278646 0.000117530648781522    0.903133516284981  0.00840696366798832    0.890879754892947    0.148965122109832
  0.0144841149449348 0.000120682327839588    0.874346399966104   0.0082245978922931    0.860842821563602     0.11406028250292
  0.0149285960942507 0.000123880747712862    0.838453592857205  0.00794407795677243    0.823112144327368    0.089982739657699
  0.0153584899380803 0.000126978714203936    0.812734662792899  0.00777372162116445    0.777554674630205   0.0732017398327789
  0.0158058758825064 0.000130207089030339     0.74130477484216  0.00722426888008932    0.718604244863805   0.0601512313575912
  0.0162357520312071 0.000133312999205581     0.67045621613384  0.00671327826880056    0.649304511648706   0.0505097799630701
  0.0166802443563938 0.000136528270739724    0.591525446996473  0.00612721112464954    0.564266408090577   0.0426746387158978
  0.0171130411326885 0.000139662318733363    0.475386311041537  0.00523255764363016    0.470441450914074    0.036572334434661
   0.017560450360179 0.000142905475587019    0.372946012202883  0.00443816910617917    0.367481498947779   0.0314557650488162
  0.0179932322353125 0.000146045583051335    0.267906748090492  0.00358082214890883    0.270620250148715   0.0273893602929635
  0.0184377077966929 0.000149209254178506    0.171668765252974  0.00270715959558421    0.183823259550736   0.0239193757023897
  0.0188646260648966 0.000151801556972429     0.11058454572889  0.00211337857362894    0.120230126232771   0.0211204821939061
  0.0193120259791613 0.000154533594037251   0.0720097300352674  0.00167285249287101   0.0777656334177705   0.0186387334384672
  0.0197477731853724 0.000157208795985361    0.061388383689342  0.00153405059584355   0.0585128039594184   0.0165804633686047
  0.0201951861381531  0.00015996959148726   0.0618670039554854  0.00153913410418245   0.0563500609311613    0.014769372365636
  0.0206309147179127 0.000162671192538097   0.0710467625468238  0.00164739127783172   0.0652825745978564   0.0132480742682754
  0.0210695490241051  0.00016540306052953   0.0881360856284563  0.00185667107189336   0.0799282801895931   0.0119184647152777
  0.0214994288980961 0.000168091752173905    0.105712900714044  0.00207021457418792   0.0958528164247511   0.0107805204535756
  0.0219438672065735 0.000191024916855853    0.114271598341552  0.00119455010819887     0.11091250266247  0.00976054412142896
   0.022826986387372 0.000198723759050931    0.133882521254535  0.00130159723754277    0.132407838166174  0.00807060514147091
  0.0236926041543484 0.000206280972437685    0.142154104482979  0.00134188022251288    0.139635850838501  0.00675832812680093
  0.0245756395161152 0.000213943333204586    0.135284269773611  0.00128523629718637    0.133560776302582  0.00569110374982114
  0.0254470705986023 0.000221703758271679    0.118046843737756  0.00116276930699132    0.117311862971568  0.00484187593379644
  0.0263243243098259 0.000229126501304735   0.0922130510145352 0.000983205476991476   0.0946280989469461  0.00414505359818321
  0.0272073857486248 0.000236824829377245    0.069141724126706 0.000817271621782076   0.0696554438612579  0.00356840144773743
  0.0280759036540985 0.000244636988825078   0.0446861819689107 0.000624230371706679   0.0468120105829521  0.00309797996464471
  0.0289560649544001 0.000251971954910976   0.0253876976220391 0.000451518179591262   0.0282334825585578  0.00269928670854686
  0.0298362318426371 0.000259631686068077   0.0136551252278589 0.000322009292374698   0.0156713542932736  0.00236382439685749
  0.0307105109095573 0.000267484313766815  0.00751250936378801 0.000234027142282274  0.00908702144845729  0.00208154979230566
  0.0315906777977943 0.000274945517941933  0.00719943567005599 0.000226433356378762  0.00719655038710719  0.00183936772804459
  0.0324679352343082 0.000282819204045126  0.00758370521811663 0.000205151662514663  0.00830375147531646  0.00163256491650252
  0.0333451293408871 0.000290530053358959   0.0107466877482524 0.000243584764137924   0.0106627315542461  0.00145445471288474
  0.0342194251716137 0.000297859367903768   0.0137013402991662 0.000273661219649434   0.0128916409103015  0.00130079293285629
  0.0350995548069477 0.000305680888721688   0.0158814080025576 0.000293586039348406   0.0141495350248752    0.001166324524035
  0.0359680019319057 0.000313131412610365   0.0157730181201977  0.00028905394112798   0.0140732274022424  0.00105046065742656
   0.036848146468401 0.000320898964609113   0.0146090652247543 0.000276269208454799   0.0127227260288295 0.000947523028244246
  0.0377136319875717 0.000328581073906534  0.00979029471755316 0.000201360302714875    0.010478583162385  0.00085844883313598
  0.0385996252298355 0.000336064958535839  0.00757553208024251 0.000174638043004409  0.00771988734487324 0.000777966020840803
  0.0394767932593822 0.000343721171088787  0.00540158150313791 0.000145457947915826  0.00501914585934871 0.000707442207236312
  0.0403481386601925 0.000351336175408717  0.00283433745361905  0.00010373226200909   0.0027587096828945 0.000645209321686044
  0.0412253364920616 0.000358902151028724  0.00128704629684119 6.93355014269003e-05  0.00115267325104268 0.000589388099499385
  0.0421054288744927 0.000366759464370773  0.00040544865594708 3.90646700294597e-05 0.000292137498436851 0.000539367778258866
  0.0429767481982708 0.000374265823618197 0.000256411905247594 3.12555708927451e-05 0.000109177389165952 0.000495014331843004
  0.0438642874360085 0.000381937821992783 0.000504528185814026 2.09669257414046e-05 0.000425222101422791 0.000454460658391686
  0.0447332412004471 0.000389656090610967  0.00103260361610264 3.42615759746028e-05 0.000999384333087381 0.000418729803308041
  0.0456104166805744 0.000396996319571379   0.0016307718067498 4.27651936811048e-05  0.00162344683379828 0.000386184795974109
  0.0464897826313972 0.000404775785562643  0.00223448935078351  4.9621352271978e-05   0.0021151204111334 0.000356692909941564
  0.0473691187798977 0.000412555145529936  0.00243660675347302 5.14398884092591e-05  0.00236317281879237 0.000329982907062187
  0.0482462495565414 0.000420030094266406  0.00237729900579418 5.04832849746871e-05  0.00233392173703756 0.000305800502664457
  0.0491189770400524 0.000427816833237014    0.001769724710851 4.08655526862124e-05  0.00206228693418112 0.000283914802087891
  0.0499983131885529 0.000435469701608782  0.00140454900114673 3.59829926883125e-05  0.00162387267096632  0.00026382075226811
  0.0508732311427593 0.000443001028970592 0.000986610567679581 2.97792191801564e-05  0.00112664502765313 0.000245570758781513
  0.0517459735274315 0.000450760671609349 0.000588773480997378 2.28880204347431e-05 0.000672040728958133 0.000228922476819749
  0.0526274517178535  0.00045807665981244 0.000288771996986586 1.60474842404083e-05 0.000337895899861404 0.000213523740257372
  0.0535089559853077 0.000465870805770564 0.000159870926504618 1.20131039092111e-05 0.000179079136271794  0.00019940340957653
  0.0543794669210911 0.000473601055160108  0.00020266867272996 1.32813695579776e-05 0.000205508292934496 0.000186593190957322
   0.055258747190237 0.000481131201869689 0.000424026959550512 1.77925853716899e-05 0.000392117036439197 0.000174687490778552
  0.0561380349099636 0.000488909562985035 0.000732091805536619 2.32874376214759e-05 0.000687417437670667 0.000163720297734673
  0.0570129118859768 0.000496422168328545   0.0010931797481838  2.8411553650038e-05  0.00102355720378611 0.000153653647976013
  0.0578943639993668 0.000503981286620987  0.00135869284659102 3.15531692966417e-05  0.00133786754680226 0.000144285873246702
  0.0587779954075813 0.000511929998997927  0.00166414252508605  3.4881433407966e-05  0.00157194352882164  0.00013560340050378
  0.0596550591289997  0.00051944423633691  0.00175379568565181  3.5659950691851e-05  0.00168753204022247 0.000127624051237586
  0.0605233274400234 0.000527018239980929  0.00183396767123933 3.63519019572081e-05  0.00167405516808142 0.000120297816605888
     0.0614003688097 0.000534780354995215  0.00154713803562099 3.14277082230204e-05  0.00154055558098786  0.00011342628161539
   0.062277402728796 0.000542091412725664  0.00125724967858225 2.80355469096779e-05  0.00131436042116266 0.000107040254931169
   0.063158817589283  0.00054999246479794 0.000997726401314707  2.4721306288123e-05  0.00103319732583151 0.000101070742707523
  0.0640402138233185  0.00055767688717241 0.000751487265896993 2.12510654869015e-05 0.000741762901626273 9.55131129723989e-05
  0.0649194270372391 0.000565138392464289 0.000456864705209044 1.63491518830624e-05 0.000480494009298527 9.03458658818453e-05
  0.0657898336648941 0.000573042700514805 0.000291007173557588 1.29833220915659e-05  0.00028021815219017 8.55715906132256e-05
  0.0666624680161476  0.00058055676323067 0.000144507733083991 8.66666510380245e-06 0.000153728181695265 8.10989198153424e-05
  0.0675394311547279 0.000588083312930543 0.000101833999430655 7.27416313944906e-06 0.000103491970371252  7.6895747180284e-05
  0.0684208050370217 0.000595875401853738 0.000109339770129026 7.48277474341955e-06 0.000119827929802229 7.29431412901479e-05
  0.0692999586462975 0.000603390235595893 0.000197505751566912 9.95677536607525e-06 0.000182789318262866 6.92509897431055e-05
  0.0701782405376434 0.000610970989148389 0.000293699709126666 1.08161559238738e-05 0.000267675321252446 6.57934974697107e-05
  0.0710429102182388 0.000618644928252258 0.000314817659725223  2.4668309078921e-05 0.000349026414384347 6.25987429408834e-05
  0.0719198510050774 0.000626170959677605 0.000445851817203578 2.92221192186519e-05 0.000409641264533244 5.95550709721645e-05
  0.0727967917919159 0.000633931375764587 0.000438033735692377 2.76863266144777e-05 0.000435567748873227 5.66947086812845e-05
  0.0736737176775932 0.000641457069474327  0.00047157808585938 2.85582267291665e-05 0.000422470527041984 5.40047346443407e-05
  0.0745681747794151 0.000649232766318501 0.000397474395668184 2.61559011223326e-05 0.000372878404716412 5.14237350087648e-05
  0.0754450783133507 0.000656992649376847 0.000305831181595133  2.2850965220598e-05 0.000299006744283846 4.90415838065734e-05
  0.0763219818472862 0.000664518016020624 0.000205801557645289 1.86916980607079e-05 0.000213943682937752 4.67961938413077e-05
  0.0771813243627548 0.000672153768129233 0.000154409644850908 1.61831923369152e-05 0.000133763551915744 4.47195289596519e-05
  0.0780582129955292 0.000679913318352049 9.04659065901447e-05 1.19018995649804e-05 6.75224711287737e-05 4.27184332347888e-05
  0.0789350792765617 0.000687221685847663 3.97715357237387e-05 8.17245397986894e-06 2.54224866488593e-05  4.0828312830082e-05
  0.0798207074403763 0.000695042709469325 1.74146402792219e-05 5.76325998534662e-06 1.08078501099925e-05 3.90245785704668e-05
  0.0806975588202477 0.000702567289054565 3.44626483228305e-05 7.57283374656378e-06 2.20475441894722e-05 3.73359346391233e-05
  0.0815744027495384 0.000710091707532509 6.14549502391355e-05 9.78768321740443e-06 5.26615492255287e-05 3.57380124285498e-05
  0.0824512392282486 0.000717958524291722 0.000117464292884958 1.32082639891367e-05 9.36149296242988e-05 3.42249079292654e-05
  0.0833280608057976 0.000725608756498315  0.00016395570232214 1.54443585583384e-05 0.000135071215915819 3.27912624005839e-05
  0.0842048674821853 0.000733132690026783 0.000180453557118768 1.55812237818113e-05 0.000168213815726883 3.14321002489143e-05
    0.08507289737463  0.00074082897842469 0.000185650721619041 1.56961887211175e-05 0.000186621356901935 3.01554440154078e-05
  0.0859496966004372 0.000748244351944654 0.000192869110843379 1.59773393423753e-05 0.000187811307529435 2.89312049520386e-05
  0.0868264585733414 0.000756002097739825 0.000191908054454346 1.58592796765601e-05  0.00017225500929634 2.77686821431322e-05
  0.0877032354474068 0.000763759744406773 0.000149062705197457 1.39929857239275e-05 0.000143877857369768 2.66640981528292e-05
  0.0885799899697304 0.000771174614259751 0.000119160176616683 1.24885544521643e-05 0.000108808048120222 2.56140564225558e-05
  0.0894567370414734 0.000779040073475705 9.09775615286178e-05 1.04647523223046e-05 7.40848958271832e-05 2.46153795339022e-05
  0.0903422459959984  0.00078653452335277 7.04351275968331e-05 9.23991341016138e-06  4.6076142195799e-05 2.36557301907807e-05
  0.0912189707159996 0.000794165225219649 3.82946927841156e-05 6.91568752076741e-06 3.03737674615896e-05 2.27513443565609e-05
  0.0920956805348396 0.000801921955857266 2.78505261134124e-05 5.93855248593272e-06 2.92427861597314e-05 2.18899121548133e-05
  0.0929723829030991 0.000809335964945284 5.21022136985373e-05 7.84844661828113e-06 4.25443930392186e-05 2.10689747672794e-05
  0.0938490852713585 0.000817092341801329 7.60938812604537e-05 9.35472443832366e-06 6.76333310625926e-05 2.02862755098562e-05
  0.0947257727384568 0.000824956755440019 7.87563110564165e-05 9.45780481611336e-06 9.99356750549839e-05 1.95396947903664e-05
  0.0956024304032326 0.000832370122225134 0.000132080257069999   1.171600593266e-05  0.00013386054905995 1.88272357062788e-05
  0.0964703261852264 0.000840064031323786 0.000156083551060735 1.26587991173331e-05 0.000163530089559614 1.81537041341715e-05
  0.0973469614982605 0.000847477074380011 0.000192056255180765 1.39778712258177e-05 0.000184877236121885 1.75037728441547e-05
  0.0982236117124558 0.000855124323642849 0.000198513154188767 1.41489329512934e-05 0.000194469064583049 1.68827347967747e-05
  0.0991002172231674 0.000862987699147389 0.000179966265750087 1.34128870487093e-05 0.000191201154980426 1.62891038810072e-05
  0.0999768376350403 0.000870400156478637  0.00016346071748318 1.27532466832207e-05 0.000176007029043274 1.57213901680679e-05
   0.100853428244591  0.00087815495752589  0.00015368719281497 1.19493380567617e-05 0.000151524752358551 1.51782902498855e-05
   0.101738780736923 0.000885863233723654 0.000131353433577323 1.10348722428501e-05 0.000121254612815406 1.46534174531484e-05
   0.102615356445312 0.000893275220422789 8.17252243948509e-05 8.70950368052169e-06 9.00912355855031e-05 1.41559531963745e-05
    0.10349190980196 0.000901029341146389 7.95417140126893e-05 8.56708399888852e-06 6.17523047437428e-05 1.36795052478154e-05
   0.104368470609188 0.000908765396030782 3.80010495833143e-05 5.97442753247328e-06 3.93617959809744e-05 1.32229812929625e-05
   0.105245001614094 0.000916302845745748 3.34080622262107e-05 5.60645377152658e-06 2.47660286172744e-05 1.27854079872175e-05
   0.106121525168419  0.00092405637597025 2.77124818368399e-05  5.1224138761382e-06 1.83825298229964e-05 1.23658444132065e-05
    0.10698926448822 0.000931297316063017 1.33739965544734e-05 3.55440003922034e-06 1.92420820138548e-05 1.19673368142508e-05
   0.107874527573586 0.000939094247716413 2.28008212755051e-05 4.49699571935825e-06 2.55045780579646e-05 1.15772587872726e-05
   0.108742244541645 0.000946785311014563 2.08609809428127e-05 4.31517736269315e-06 3.44002138540795e-05 1.12102700694012e-05
   0.109618715941906 0.000954195621819516  2.6071156980143e-05 4.76781272119242e-06 4.35214865576457e-05 1.08542461402972e-05
   0.110495172441006 0.000961948029016448 3.43214691508308e-05 5.40214617521587e-06 5.05092879561483e-05 1.05122999109885e-05
   0.111371606588364 0.000969700260590969 3.79650140371209e-05 5.66504401472248e-06 5.37929239416807e-05 1.01837643084967e-05
   0.112256810069084 0.000977171752561482 2.58000497470681e-05 4.74720521127102e-06 5.26745100668147e-05 9.86489711913397e-06
   0.113141991198063 0.000985093529094203 3.23477694659857e-05 5.25225740810336e-06 4.73533648324951e-05  9.5584588963501e-06
   0.114018388092518 0.000992628805360403 2.05137797660455e-05 4.12821785633081e-06 3.89756252575776e-05 9.26672457974224e-06
   0.114894777536392  0.00100014591858546 2.86433738757027e-05 4.75074785201616e-06 2.90202575784376e-05 8.98607487799925e-06
   0.115771144628525  0.00100789699219947 1.51329680179255e-05 3.60461942426952e-06 1.91688452888756e-05 8.71601468518893e-06
   0.116647519171238  0.00101541369914175 7.98850465172275e-06 2.81873537415311e-06 1.09417186841779e-05 8.45604901222562e-06
   0.117523863911629  0.00102305626770995 9.23432034293212e-06 2.96524560148011e-06 5.43821900770832e-06 8.20574374319782e-06
   0.118382669985294  0.00103068298194799 5.64181082697015e-06 2.51295218534107e-06 3.18579659911788e-06 7.96940399028646e-06
   0.119258977472782  0.00103819891712789 1.02703703725521e-05 3.08210516928832e-06 3.98287682784245e-06 7.73698594824778e-06
    0.12013528496027  0.00104594888367646 1.27652537336384e-05 3.34753194662427e-06 7.25211923821565e-06 7.51300987080593e-06
   0.121011562645435  0.00105346433856415 1.46099499888479e-05 3.53645805989152e-06 1.19531230408176e-05 7.29711102865105e-06
   0.121887840330601  0.00106110561179863 2.55395619199694e-05 4.44208821147479e-06 1.68914885099301e-05 7.08893994973628e-06
   0.122764103114605  0.00106885484523493 2.01072248285973e-05 4.03195498326807e-06 2.09501710643681e-05 6.88817213995999e-06
   0.123640343546867   0.0010761534389457  2.9906127845852e-05 4.46235459753822e-06 2.32969467933619e-05 6.69448692917668e-06
   0.124516569077969   0.0010840101714109 2.21695892734605e-05  3.8828736180684e-06 2.35148543708356e-05 6.50759530701565e-06
   0.125392779707909   0.0010916505851846 2.61679968313305e-05 4.14184396565624e-06  2.1661573254571e-05 6.32720605264934e-06
   0.126268982887268  0.00109905656516266 2.15493856124721e-05 3.78008244099132e-06  1.8221896742427e-05 6.15304766386848e-06
   0.127145171165466   0.0011069125630896 1.45802751789359e-05 3.17066201406761e-06 1.39937806982196e-05   5.984870419888e-06
   0.128021329641342  0.00111453413468838 8.89877707366889e-06   2.580895396889e-06 9.92352126022577e-06 5.82242644022401e-06
   0.128897488117218   0.0011219573782649 1.24276053926695e-05 2.93039538925548e-06 6.91788547671807e-06  5.6654775228386e-06
   0.129773616790771  0.00112981260211824 1.35845397919506e-05 3.02111942469229e-06 5.68046406429117e-06 5.51381048894568e-06
   0.130649745464325  0.00113732539427272 2.14097075743643e-05 3.65894558995767e-06 6.58205990941191e-06  5.3672048702325e-06
   0.131525844335556  0.00114496392936325 1.19872705511626e-05 2.84125616897436e-06 9.60956315734724e-06  5.2254663312001e-06
   0.132401943206787  0.00115269233027195 1.57086392555461e-05 3.16244582280388e-06 1.43730295031116e-05 5.08839742082988e-06
   0.133277997374535   0.0011601142303092 2.23035168900952e-05 3.68805291945022e-06 2.01838248958327e-05 4.95581691396469e-06
   0.134162828326225  0.00116779588434973 2.82642093331064e-05   3.944075672574e-06 2.62394987181654e-05 4.82628860209151e-06
    0.13503885269165  0.00117543342882649 3.61908087897952e-05 4.41490838670224e-06 3.15266890469335e-05 4.70220631382994e-06
   0.135914877057076  0.00118307063138039 3.39751142655316e-05 4.27265029429077e-06 3.53391504474774e-05 4.58211357144756e-06
