# intensity: 1.02055459252144
# background: 0
#           Q (1/A)             dQ (1/A)                    R                   dR               theory              fresnel
     0.0483642315116 0.000750702739851845       0.951434579138     0.00501003519873    0.919320197266207   0.0166297104802652
     0.0497866914682 0.000750709007438337        0.94044560157     0.00496697431537    0.915661073713655    0.015211323711054
     0.0512091499082 0.000750715456630211        0.92483593417     0.00490572657895    0.909414066620069   0.0132568587163126
     0.0526316067882    0.000750722087422        0.91507948482      0.0048673956524    0.902029818181649   0.0115582965333364
      0.054054062065 0.000750728899808085       0.891642996968     0.00477516962074     0.89340171673219   0.0101340331288595
     0.0554765156953 0.000750735893782693       0.876236096925     0.00471441470647    0.883081534645454  0.00893067576165485
     0.0568989676356 0.000750743069339895       0.854327123245     0.00462784251127    0.870422415810494  0.00790696245442583
     0.0583214178427 0.000750750426473612       0.832076973197     0.00453970038522    0.854493260503613  0.00703062290459653
     0.0597438662732 0.000750757965177608       0.797485049287     0.00440218205643    0.833979697757617  0.00627614689492316
     0.0611663128838 0.000750765685445495       0.755120376229     0.00423288370811    0.807120242388669  0.00562317162148212
     0.0625887576312 0.000750773587270732       0.713350487453     0.00406490300013    0.771822606247454  0.00505529902740912
      0.064011200472 0.000750781670646622       0.660982624188     0.00385260415179    0.726266755681505   0.0045592169008078
     0.0654336413629 0.000750789935566318       0.611077559878     0.00364824562759    0.670361056093499    0.004124037801969
     0.0668560802606 0.000750798382022817        0.56406531003     0.00345358980774    0.607816318367435  0.00374079633842702
     0.0682785171218 0.000750807010008963       0.524906916272     0.00328959354811    0.546973868830743  0.00340206298761783
      0.069700951903 0.000750815819517446       0.497644208161     0.00317426832942    0.497833419762148  0.00310164468388177
     0.0711233845611 0.000750824810540804        0.47861385523      0.0030931423649    0.466318194875847  0.00283435067781889
     0.0725458150526  0.00075083398307142       0.474897210464      0.0030772339742    0.451257752615807  0.00259580797801604
     0.0739682433342 0.000750843337101525       0.465759918032     0.00303803317951    0.446753559417821   0.0023823147954067
     0.0753906693627 0.000750852872623196       0.468748114267     0.00305086561273    0.446415054186866  0.00219072335984242
     0.0768130930946 0.000750862589628355       0.459408054463     0.00301070035281    0.445719891491937  0.00201834561546052
     0.0782355144866 0.000750872488108774       0.451730687084     0.00297757578127    0.442226100792535   0.0018628768671077
     0.0796579334955  0.00075088256805607        0.44262088991     0.00293813751632    0.434927517340418  0.00172233360820179
     0.0810803500778 0.000750892829461706       0.427630839031     0.00287291585697     0.42361633510884  0.00159500262389814
     0.0825027641903 0.000750903272316994       0.407801406942     0.00278596845389    0.408481381368455  0.00147939911321205
     0.0839251757896 0.000750913896613089        0.38491694649     0.00268458712938    0.389903184796505  0.00137423206678666
     0.0853475848324 0.000750924702340998        0.36495233615     0.00259513435406    0.368365001917047  0.00127837551297358
     0.0867699912754  0.00075093568949157       0.339069270754     0.00247758842129    0.344420776847884  0.00119084453466883
     0.0881923950752 0.000750946858055505       0.315984395044     0.00237105595035    0.318685355771644  0.00111077518333644
     0.0896147961885 0.000750958208023346        0.29176402206     0.00225731092922    0.291827862225851  0.00103740759129963
      0.091037194572 0.000750969739385486       0.260541415925     0.00210718175422    0.264558069585485 0.000970071720281016
     0.0924595901823 0.000750981452132163       0.233198425444     0.00197181075627    0.237601235400953 0.000908175291969791
     0.0938819829761 0.000750993346253465       0.203718442648     0.00182081600318    0.211661256107075 0.000851193531859383
     0.0953043729102 0.000751005421739325       0.179902428357     0.00169407309675    0.187375864248965 0.000798660425687646
     0.0967267599411 0.000751017678579521       0.159465870211      0.0015810856865    0.165270640835446 0.000750161242246956
     0.0981491440255 0.000751030116763682       0.139745756765     0.00146746640219    0.145720099989755 0.000705326120064016
     0.0995715251202 0.000751042736281284       0.126108664385     0.00138566532441    0.128923406000908 0.000663824550906427
      0.100993903182 0.000751055537121649       0.112524602447     0.00130099949817    0.114899439333535 0.000625360621657676
      0.102416278167 0.000751068519273941       0.102319996657     0.00123490813755    0.103501785195815 0.000589668899486633
      0.103838650032 0.000751081682727178      0.0923451938816     0.00116785769893   0.0944501260096367 0.000556510864234628
      0.105261018734 0.000751095027470228       0.086452774134     0.00112693280748   0.0873717305459152 0.000525671807774075
       0.10668338423 0.000751108553491803      0.0807360861031      0.0010861680282     0.08184587830851 0.000496958132808577
      0.108105746476 0.000751122260780457      0.0782499283608     0.00106807991715   0.0774449902274124  0.00047019499432498
      0.109528105429 0.000751136149324599       0.074804005069     0.00104262552508   0.0737682602286056 0.000445224235641032
      0.110950461045 0.000751150219112476      0.0717636165127     0.00101976905544   0.0704658628256557 0.000421902578543244
      0.112372813282 0.000751164470132202      0.0692369052886     0.00100047071944   0.0672537139162105 0.000400100032832143
      0.113795162096  0.00075117890237172      0.0658044998135    0.000973787182507   0.0639199872923517 0.000379698496087029
      0.115217507443  0.00075119351581882      0.0610469014476    0.000935831757317   0.0603251363658222 0.000360590518344122
      0.116639849281 0.000751208310461158      0.0568029804151    0.000900911670889   0.0563972101043714 0.000342678210328019
      0.118062187565  0.00075122328628621       0.051153205622    0.000852651373305   0.0521240032918149 0.000325872276897065
      0.119484522253 0.000751238443281329      0.0459089655654    0.000805749994439   0.0475432325028447 0.000310091159637155
      0.120906853302 0.000751253781433706      0.0424490783547    0.000773512018533   0.0427316065950703 0.000295260275225653
      0.122329180667  0.00075126930073036      0.0366782244134    0.000717022413013   0.0377934259949048 0.000281311337612439
      0.123751504306 0.000751285001158187       0.032705241141    0.000675774607553   0.0328492116504704 0.000268181753809194
      0.125173824175 0.000751300882703912      0.0279482240383    0.000623256835424   0.0280248125053509 0.000255814084603564
      0.126596140232 0.000751316945354128      0.0231236178092    0.000565581758074   0.0234414328394002  0.00024415556232835
      0.128018452432 0.000751333189095245      0.0191641523513    0.000513885901012   0.0192070175257912   0.0002331576591664
      0.129440760732 0.000751349613913542         0.0141359001    0.000440271397973   0.0154093991539978  0.00022277569999656
      0.130863065089 0.000751366219795145      0.0120352606732    5.97466838036e-05    0.012111525894405 0.000212968514830147
       0.13228536546 0.000751383006726032     0.00934358447845    4.93090836114e-05  0.00934894972520334 0.000203698126302124
      0.133707661802 0.000751399974692025       0.007159964344    4.06431350028e-05  0.00712957629678325 0.000194929468325775
       0.13512995407 0.000751417123678775      0.0055887953509    3.42157019178e-05    0.005435487479693 0.000186630132490041
      0.136552242222 0.000751434453671812     0.00434438216249    2.89307750414e-05  0.00422647748522732 0.000178770139127449
      0.137974526215 0.000751451964656508     0.00361685846449    2.57148597532e-05  0.00344482110769037 0.000171321730488877
      0.139396806004 0.000751469656618054      0.0032326339746    2.39622827213e-05  0.00302073464197263 0.000164259183602541
      0.140819081547 0.000751487529541531     0.00306589923611    2.31866348511e-05  0.00287799917382273 0.000157558640735879
      0.142241352801 0.000751505583411852     0.00318062969614    2.37193714533e-05  0.00293928200241201 0.000151197955700632
      0.143663619722 0.000751523818213769     0.00337496823168    2.47063536734e-05  0.00313079642170726  0.00014515655430624
      0.145085882266 0.000751542233931882      0.0036949756928    2.61589950027e-05  0.00338606162541602 0.000139415307536953
      0.146508140391 0.000751560830550665     0.00397145575941    2.73928607322e-05  0.00364864383366119 0.000133956416171367
      0.147930394053 0.000751579608054414     0.00421400608699    2.84612866375e-05  0.00387386295214854 0.000128763305729449
      0.149352643209  0.00075159856642729     0.00432489280365    2.89462301701e-05  0.00402952862093495 0.000123820530678691
      0.150774887815 0.000751617705653286     0.00441551630015    2.93399338413e-05  0.00409582358011139  0.00011911368703983
      0.152197127829 0.000751637025716273     0.00440570235966    2.92971621979e-05  0.00406448323889249 0.000114629332545311
      0.153619363206 0.000751656526599929     0.00423975754483    2.85742069983e-05    0.003937432776477 0.000110354913669713
      0.155041593904 0.000751676208287825     0.00402447267002    2.76282468751e-05  0.00372504226701547 0.000106278698822179
      0.156463819879  0.00075169607076335     0.00376295683488    2.64655617869e-05  0.00344415092797092  0.00010238971718876
      0.157886041087 0.000751716114009744     0.00337408957571    2.47042895404e-05  0.00311599726927738 9.86777026470829e-05
      0.159308257487 0.000751736338010139     0.00308011744466    2.33425864036e-05  0.00276417506901378 9.51330423052205e-05
      0.160730469033 0.000751756742747443     0.00261365787108    2.11158744366e-05  0.00241271704917015 9.17467292718997e-05
      0.162152675683 0.000751777328204473      0.0022931908026    1.95260552448e-05  0.00208438943333372  8.8510319207952e-05
      0.163574877394  0.00075179809436388     0.00195542091802     1.7781265055e-05  0.00179926146162287 8.54158903952252e-05
      0.164997074122 0.000751819041208152     0.00171939970045    1.65088742694e-05  0.00157359446441527 8.24560069659407e-05
      0.166419265824 0.000751840168719637     0.00153650353356    1.54844721767e-05  0.00141907552591874 7.96236850231628e-05
      0.167841452457 0.000751861476880536     0.00142038542022    1.48131868323e-05  0.00134240152933102 7.69123614109352e-05
      0.169263633977 0.000751882965672885     0.00142606290655    1.48464289689e-05  0.00134520114518174 7.43158648990518e-05
       0.17068581034 0.000751904635078568      0.0014925706036    1.52325652606e-05  0.00142426592062235 7.18283895727446e-05
      0.172107981505 0.000751926485079365     0.00161643442974    1.59373580224e-05  0.00157204786751561 6.94444702410979e-05
      0.173530147426 0.000751948515656829     0.00180153400168    1.69585580227e-05  0.00177737052125117 6.71589597159346e-05
      0.174952308062 0.000751970726792442     0.00205381716225    1.82992953111e-05  0.00202629381094277 6.49670077579973e-05
      0.176374463368  0.00075199311846747      0.0023343525766    1.97344470814e-05  0.00230307037088141 6.28640416120832e-05
      0.177796613302 0.000752015690663082     0.00260542551408    2.10763821058e-05  0.00259113198366409 6.08457479467217e-05
      0.179218757819 0.000752038443360243     0.00289958689434    2.24920938466e-05  0.00287404919198154 5.89080561277447e-05
      0.180640896878 0.000752061376539838     0.00321740446812    2.39825517742e-05  0.00313641413211618 5.70471226814556e-05
      0.182063030433 0.000752084490182517     0.00343099961467    2.49651513109e-05  0.00336460553354147 5.52593168916282e-05
      0.183485158443 0.000752107784268866     0.00358430526397    2.56621682408e-05  0.00354740487250324 5.35412073951318e-05
      0.184907280863 0.000752131258779252      0.0037512639166      2.641398538e-05  0.00367644311593309 5.18895497455452e-05
      0.186329397651 0.000752154913693944     0.00387658766861    2.69733282329e-05  0.00374646781485068 5.03012748267497e-05
      0.187751508763 0.000752178748993029     0.00385267463694    2.68668280435e-05  0.00375543000822983 4.87734780837752e-05
      0.189173614156  0.00075220276465646     0.00376766103801    2.64872359174e-05  0.00370439919951815 4.73034094855085e-05
      0.190595713786 0.000752226960664025     0.00367332014005    2.60639193999e-05  0.00359732233035273 4.58884641778749e-05
       0.19201780761 0.000752251336995379     0.00348570625226    2.52151940827e-05  0.00344064907282358 4.45261737659812e-05
      0.193439895585 0.000752275893630027     0.00333914599882    2.45448440255e-05  0.00324285078731509 4.32141981851758e-05
      0.194861977668 0.000752300630547327     0.00308701153477    2.33760521939e-05  0.00301386406737114  4.1950318113254e-05
      0.196284053814 0.000752325547726453     0.00285420755945    2.22766508554e-05  0.00276449184501458 4.07324278866279e-05
      0.197706123982 0.000752350645146498     0.00256368247262    2.08728404235e-05  0.00250579549933266 3.95585288751218e-05
      0.199128188127 0.000752375922786338     0.00231195354194    1.96222677466e-05  0.00224851028276831 3.84267233004714e-05
      0.200550246206 0.000752401380624735     0.00203928550175    1.82246477035e-05  0.00200251366126135 3.73352084434531e-05
      0.201972298176 0.000752427018640302      0.0018164982344    1.70414620999e-05  0.00177637199682132 3.62822712297213e-05
      0.203394343994 0.000752452836811504     0.00159668488852    1.58290040676e-05  0.00157698555607244 3.52662831593724e-05
      0.204816383616 0.000752478835116639     0.00142823927619    1.48627561179e-05  0.00140934543070403    3.42856955583e-05
      0.206238416999 0.000752505013533874     0.00128250360926     1.3995115781e-05  0.00127640898341451 3.33390351260543e-05
      0.207660444099  0.00075253137204121      0.0011998195825    1.34864695972e-05  0.00117909333939532 3.24248997643643e-05
      0.209082464874 0.000752557910616538      0.0011205150117    1.29866515456e-05  0.00111637969015054 3.15419546610057e-05
       0.21050447928 0.000752584629237562     0.00109082085699    1.27957157118e-05   0.0010855152118444 3.06889286191148e-05
      0.211926487274 0.000752611527881857     0.00108626985584    1.27656916617e-05  0.00108229458806566 2.98646106065555e-05
      0.213348488811 0.000752638606526812     0.00109142915849     6.3819630991e-06  0.00110139974029965 2.90678465183225e-05
       0.21477048385 0.000752665865149744     0.00112026718402    6.87719049242e-06  0.00113677454160146 2.82975361291007e-05
      0.216192472347 0.000752693303727766     0.00116189757771    7.05034664085e-06  0.00118201103040091 2.75526302354465e-05
      0.217614454258 0.000752720922237841     0.00121623472667     7.2749655485e-06  0.00123072483675535  2.6832127962466e-05
       0.21903642954 0.000752748720656806     0.00125786512065    7.44612931396e-06  0.00127689996838279  2.6135074230782e-05
       0.22045839815 0.000752776698961349     0.00129284474508     7.5893713891e-06  0.00131518649815475 2.54605573731414e-05
      0.221880360044  0.00075280485712799     0.00133221135443    7.74968165455e-06  0.00134113873348717 2.48077068899044e-05
      0.223302315179 0.000752833195133124      0.0013433797814    7.79494488572e-06   0.0013513858125142 2.41756913331574e-05
      0.224724263513 0.000752861712953016     0.00132416013838    7.71661449338e-06  0.00134373106648766 2.35637163135133e-05
         0.226146205 0.000752890410563704      0.0013026424649     7.6287601863e-06  0.00131718065807471 2.29710226229151e-05
      0.227568139599 0.000752919287941181     0.00128050297122    7.53817077327e-06  0.00127190574466548 2.23968844582198e-05
      0.228990067266 0.000752948345061231     0.00119781443798    7.19851343166e-06   0.0012091455746159 2.18406077520376e-05
      0.230411987957 0.000752977581899491       0.001134456394    6.93603181628e-06  0.00113106140056825 2.13015285926678e-05
       0.23183390163 0.000753006998431492     0.00106001373391    6.62480067862e-06  0.00104055283622742 2.07790117325845e-05
      0.233255808241 0.000753036594632577     0.00094615309734    6.14183828876e-06 0.000941049278106121 2.02724491817006e-05
      0.234677707746 0.000753066370477943    0.000848486814714    5.71950179159e-06 0.000836289281641956 1.97812588758264e-05
      0.236099600102  0.00075309632594266    0.000743412765034     5.2542046191e-06  0.00073010037645765 1.93048834183626e-05
      0.237521485267 0.000753126461001672     0.00063814946533    4.77397584665e-06 0.000626190800182905 1.88427888907358e-05
      0.238943363196 0.000753156775629716    0.000536995583825    4.29479165684e-06 0.000527963121143528 1.83944637283413e-05
      0.240365233847 0.000753187269801442     0.00045000838202    3.86380973128e-06 0.000438357816852445 1.79594176536645e-05
      0.241787097175 0.000753217943491293    0.000363751142256    3.41238843721e-06 0.000359732705507224 1.75371806700764e-05
      0.243208953139 0.000753248796673652    0.000298697963644    3.04975269737e-06 0.000293781810466818 1.71273021050907e-05
      0.244630801693 0.000753279829322644    0.000242972083755    2.71741058142e-06 0.000241494913986742 1.67293497087321e-05
      0.246052642796  0.00075331104141236    0.000198736354524    2.43356797683e-06 0.000203156834735004  1.6342908793773e-05
      0.247474476404 0.000753342432916679    0.000174182577659    2.26554737987e-06 0.000178383466844985 1.59675814257754e-05
      0.248896302473 0.000753374003809332    0.000159767168989    2.16240641046e-06 0.000166189923060588 1.56029856520694e-05
      0.250318120961 0.000753405754063953    0.000153719294349    2.11814303233e-06 0.000165084809487063 1.52487547707725e-05
      0.251739931823 0.000753437683653959    0.000153051513857    2.11314362341e-06 0.000173183758138121 1.49045366389714e-05
      0.253161735017 0.000753469792552689     0.00017290379107    2.25593599085e-06 0.000188334873967523 1.45699930134322e-05
      0.254583530499 0.000753502080733295    0.000195486668809    2.41079482605e-06 0.000208248703745644 1.42447989273287e-05
      0.256005318226 0.000753534548168803    0.000217420690923    2.55480813452e-06 0.000230625671775965 1.39286420964544e-05
      0.257427098154 0.000753567194832071    0.000239514222915    2.69494330267e-06 0.000253274600741354 1.36212223562999e-05
      0.258848870241 0.000753600020695859    0.000256498017476     2.7995896412e-06 0.000274216881094905 1.33222511260565e-05
      0.260270634443 0.000753633025732736    0.000275266165154    2.91238863737e-06 0.000291771996486204 1.30314509006284e-05
      0.261692390717 0.000753666209915148    0.000288951611052    2.99306016794e-06  0.00030462138201022 1.27485547661863e-05
      0.263114139019 0.000753699573215374    0.000300311991392    3.05910247919e-06 0.000311848911617952 1.24733059404472e-05
      0.264535879306  0.00075373311560557     0.00029936304069    3.05328890917e-06 0.000312957613836757 1.22054573345505e-05
      0.265957611535 0.000753766837057748    0.000293953207578    3.02171931466e-06 0.000307863438884224 1.19447711367243e-05
      0.267379335663 0.000753800737543776    0.000283379565175    2.95978246281e-06 0.000296867994400869 1.16910184158002e-05
      0.268801051645  0.00075383481703533    0.000266019974526    2.85657438288e-06  0.00028061308951919  1.1443978744064e-05
       0.27022275944 0.000753869075504036    0.000248254848844    2.74849659603e-06 0.000260020647311471 1.12034398366915e-05
