#      z (A) rho (1e-6/A2) irho (1e-6/A2)
-33.21677470  19.12240537  -0.48165275
-33.11677470  19.12252606  -0.48149116
-33.01677470  19.12265006  -0.48132514
-32.91677470  19.12277746  -0.48115459
-32.81677470  19.12290832  -0.48097939
-32.71677470  19.12304275  -0.48079944
-32.61677470  19.12318082  -0.48061461
-32.51677470  19.12332263  -0.48042480
-32.41677470  19.12346825  -0.48022988
-32.31677470  19.12361779  -0.48002974
-32.21677470  19.12377133  -0.47982425
-32.11677470  19.12392896  -0.47961328
-32.01677470  19.12409080  -0.47939670
-31.91677470  19.12425692  -0.47917440
-31.81677470  19.12442744  -0.47894622
-31.71677470  19.12460245  -0.47871204
-31.61677470  19.12478207  -0.47847172
-31.51677470  19.12496639  -0.47822512
-31.41677470  19.12515552  -0.47797209
-31.31677470  19.12534957  -0.47771248
-31.21677470  19.12554866  -0.47744615
-31.11677470  19.12575290  -0.47717295
-31.01677470  19.12596240  -0.47689272
-30.91677470  19.12617729  -0.47660531
-30.81677470  19.12639768  -0.47631054
-30.71677470  19.12662370  -0.47600827
-30.61677470  19.12685547  -0.47569832
-30.51677470  19.12709312  -0.47538053
-30.41677470  19.12733678  -0.47505472
-30.31677470  19.12758658  -0.47472071
-30.21677470  19.12784266  -0.47437834
-30.11677470  19.12810514  -0.47402742
-30.01677470  19.12837418  -0.47366775
-29.91677470  19.12864991  -0.47329917
-29.81677470  19.12893247  -0.47292147
-29.71677470  19.12922201  -0.47253446
-29.61677470  19.12951868  -0.47213795
-29.51677470  19.12982263  -0.47173174
-29.41677470  19.13013402  -0.47131561
-29.31677470  19.13045300  -0.47088937
-29.21677470  19.13077972  -0.47045280
-29.11677470  19.13111435  -0.47000569
-29.01677470  19.13145706  -0.46954782
-28.91677470  19.13180801  -0.46907897
-28.81677470  19.13216737  -0.46859892
-28.71677470  19.13253531  -0.46810744
-28.61677470  19.13291201  -0.46760429
-28.51677470  19.13329764  -0.46708925
-28.41677470  19.13369238  -0.46656208
-28.31677470  19.13409642  -0.46602253
-28.21677470  19.13450994  -0.46547035
-28.11677470  19.13493313  -0.46490530
-28.01677470  19.13536618  -0.46432713
-27.91677470  19.13580929  -0.46373557
-27.81677470  19.13626265  -0.46313037
-27.71677470  19.13672647  -0.46251126
-27.61677470  19.13720094  -0.46187798
-27.51677470  19.13768627  -0.46123025
-27.41677470  19.13818267  -0.46056780
-27.31677470  19.13869036  -0.45989034
-27.21677470  19.13920954  -0.45919760
-27.11677470  19.13974043  -0.45848928
-27.01677470  19.14028326  -0.45776510
-26.91677470  19.14083825  -0.45702476
-26.81677470  19.14140562  -0.45626795
-26.71677470  19.14198561  -0.45549439
-26.61677470  19.14257845  -0.45470375
-26.51677470  19.14318437  -0.45389574
-26.41677470  19.14380362  -0.45307002
-26.31677470  19.14443643  -0.45222630
-26.21677470  19.14508305  -0.45136423
-26.11677470  19.14574374  -0.45048350
-26.01677470  19.14641873  -0.44958377
-25.91677470  19.14710829  -0.44866471
-25.81677470  19.14781267  -0.44772598
-25.71677470  19.14853214  -0.44676724
-25.61677470  19.14926695  -0.44578814
-25.51677470  19.15001739  -0.44478832
-25.41677470  19.15078371  -0.44376743
-25.31677470  19.15156619  -0.44272512
-25.21677470  19.15236510  -0.44166102
-25.11677470  19.15318074  -0.44057476
-25.01677470  19.15401337  -0.43946597
-24.91677470  19.15486330  -0.43833427
-24.81677470  19.15573079  -0.43717929
-24.71677470  19.15661616  -0.43600065
-24.61677470  19.15751970  -0.43479794
-24.51677470  19.15844170  -0.43357079
-24.41677470  19.15938246  -0.43231880
-24.31677470  19.16034230  -0.43104156
-24.21677470  19.16132152  -0.42973869
-24.11677470  19.16232043  -0.42840975
-24.01677470  19.16333934  -0.42705436
-23.91677470  19.16437858  -0.42567208
-23.81677470  19.16543847  -0.42426251
-23.71677470  19.16651933  -0.42282522
-23.61677470  19.16762148  -0.42135979
-23.51677470  19.16874526  -0.41986577
-23.41677470  19.16989100  -0.41834275
-23.31677470  19.17105904  -0.41679028
-23.21677470  19.17224971  -0.41520792
-23.11677470  19.17346336  -0.41359523
-23.01677470  19.17470033  -0.41195175
-22.91677470  19.17596098  -0.41027704
-22.81677470  19.17724564  -0.40857064
-22.71677470  19.17855468  -0.40683210
-22.61677470  19.17988845  -0.40506094
-22.51677470  19.18124732  -0.40325670
-22.41677470  19.18263163  -0.40141892
-22.31677470  19.18404177  -0.39954712
-22.21677470  19.18547809  -0.39764083
-22.11677470  19.18694096  -0.39569957
-22.01677470  19.18843077  -0.39372285
-21.91677470  19.18994788  -0.39171019
-21.81677470  19.19149268  -0.38966111
-21.71677470  19.19306553  -0.38757511
-21.61677470  19.19466684  -0.38545170
-21.51677470  19.19629698  -0.38329039
-21.41677470  19.19795634  -0.38109067
-21.31677470  19.19964530  -0.37885204
-21.21677470  19.20136428  -0.37657401
-21.11677470  19.20311365  -0.37425605
-21.01677470  19.20489382  -0.37189767
-20.91677470  19.20670518  -0.36949836
-20.81677470  19.20854814  -0.36705759
-20.71677470  19.21042309  -0.36457485
-20.61677470  19.21233046  -0.36204963
-20.51677470  19.21427063  -0.35948141
-20.41677470  19.21624403  -0.35686966
-20.31677470  19.21825106  -0.35421387
-20.21677470  19.22029214  -0.35151350
-20.11677470  19.22236767  -0.34876803
-20.01677470  19.22447808  -0.34597693
-19.91677470  19.22662379  -0.34313968
-19.81677470  19.22880521  -0.34025573
-19.71677470  19.23102276  -0.33732457
-19.61677470  19.23327687  -0.33434565
-19.51677470  19.23556795  -0.33131845
-19.41677470  19.23789644  -0.32824242
-19.31677470  19.24026276  -0.32511703
-19.21677470  19.24266734  -0.32194176
-19.11677470  19.24511059  -0.31871605
-19.01677470  19.24759296  -0.31543937
-18.91677470  19.25011487  -0.31211119
-18.81677470  19.25267675  -0.30873097
-18.71677470  19.25527903  -0.30529816
-18.61677470  19.25792214  -0.30181224
-18.51677470  19.26060652  -0.29827267
-18.41677470  19.26333260  -0.29467891
-18.31677470  19.26610080  -0.29103041
-18.21677470  19.26891157  -0.28732666
-18.11677470  19.27176533  -0.28356711
-18.01677470  19.27466252  -0.27975122
-17.91677470  19.27760357  -0.27587848
-17.81677470  19.28058891  -0.27194833
-17.71677470  19.28361898  -0.26796026
-17.61677470  19.28669421  -0.26391374
-17.51677470  19.28981503  -0.25980823
-17.41677470  19.29298187  -0.25564322
-17.31677470  19.29619517  -0.25141818
-17.21677470  19.29945535  -0.24713258
-17.11677470  19.30276284  -0.24278592
-17.01677470  19.30611806  -0.23837766
-16.91677470  19.30952146  -0.23390731
-16.81677470  19.31297345  -0.22937434
-16.71677470  19.31647446  -0.22477825
-16.61677470  19.32002491  -0.22011853
-16.51677470  19.32362523  -0.21539468
-16.41677470  19.32727584  -0.21060620
-16.31677470  19.33097714  -0.20575259
-16.21677470  19.33472957  -0.20083337
-16.11677470  19.33853354  -0.19584805
-16.01677470  19.34238946  -0.19079613
-15.91677470  19.34629775  -0.18567714
-15.81677470  19.35025881  -0.18049061
-15.71677470  19.35427305  -0.17523607
-15.61677470  19.35834087  -0.16991303
-15.51677470  19.36246268  -0.16452106
-15.41677470  19.36663888  -0.15905968
-15.31677470  19.37086987  -0.15352844
-15.21677470  19.37515603  -0.14792691
-15.11677470  19.37949777  -0.14225463
-15.01677470  19.38389546  -0.13651118
-14.91677470  19.38834950  -0.13069612
-14.81677470  19.39286027  -0.12480903
-14.71677470  19.39742815  -0.11884949
-14.61677470  19.40205350  -0.11281709
-14.51677470  19.40673671  -0.10671143
-14.41677470  19.41147814  -0.10053211
-14.31677470  19.41627816  -0.09427873
-14.21677470  19.42113713  -0.08795091
-14.11677470  19.42605540  -0.08154828
-14.01677470  19.43103332  -0.07507047
-13.91677470  19.43607126  -0.06851711
-13.81677470  19.44116954  -0.06188784
-13.71677470  19.44632851  -0.05518233
-13.61677470  19.45154851  -0.04840023
-13.51677470  19.45682986  -0.04154121
-13.41677470  19.46217289  -0.03460494
-13.31677470  19.46757793  -0.02759112
-13.21677470  19.47304529  -0.02049944
-13.11677470  19.47857528  -0.01332960
-13.01677470  19.48416821  -0.00608131
-12.91677470  19.48982438   0.00124570
-12.81677470  19.49554408   0.00865171
-12.71677470  19.50132761   0.01613698
-12.61677470  19.50717525   0.02370175
-12.51677470  19.51308729   0.03134627
-12.41677470  19.51906399   0.03907078
-12.31677470  19.52510563   0.04687548
-12.21677470  19.53121246   0.05476060
-12.11677470  19.53738475   0.06272633
-12.01677470  19.54362274   0.07077287
-11.91677470  19.54992668   0.07890039
-11.81677470  19.55629682   0.08710907
-11.71677470  19.56273337   0.09539907
-11.61677470  19.56923658   0.10377053
-11.51677470  19.57580665   0.11222359
-11.41677470  19.58244381   0.12075837
-11.31677470  19.58914826   0.12937500
-11.21677470  19.59592020   0.13807357
-11.11677470  19.60275982   0.14685418
-11.01677470  19.60966732   0.15571691
-10.91677470  19.61664287   0.16466182
-10.81677470  19.62368665   0.17368898
-10.71677470  19.63079883   0.18279843
-10.61677470  19.63797956   0.19199020
-10.51677470  19.64522900   0.20126431
-10.41677470  19.65254730   0.21062077
-10.31677470  19.65993459   0.22005959
-10.21677470  19.66739102   0.22958073
-10.11677470  19.67491669   0.23918418
-10.01677470  19.68251174   0.24886990
 -9.91677470  19.69017628   0.25863783
 -9.81677470  19.69791040   0.26848790
 -9.71677470  19.70571421   0.27842003
 -9.61677470  19.71358779   0.28843415
 -9.51677470  19.72153123   0.29853013
 -9.41677470  19.72954461   0.30870787
 -9.31677470  19.73762798   0.31896724
 -9.21677470  19.74578142   0.32930808
 -9.11677470  19.75400497   0.33973025
 -9.01677470  19.76229868   0.35023358
 -8.91677470  19.77066258   0.36081788
 -8.81677470  19.77909672   0.37148297
 -8.71677470  19.78760112   0.38222862
 -8.61677470  19.79617578   0.39305462
 -8.51677470  19.80482072   0.40396074
 -8.41677470  19.81353595   0.41494673
 -8.31677470  19.82232146   0.42601232
 -8.21677470  19.83117723   0.43715724
 -8.11677470  19.84010324   0.44838121
 -8.01677470  19.84909947   0.45968393
 -7.91677470  19.85816589   0.47106507
 -7.81677470  19.86730245   0.48252432
 -7.71677470  19.87650911   0.49406133
 -7.61677470  19.88578580   0.50567575
 -7.51677470  19.89513248   0.51736722
 -7.41677470  19.90454906   0.52913535
 -7.31677470  19.91403547   0.54097976
 -7.21677470  19.92359163   0.55290004
 -7.11677470  19.93321745   0.56489576
 -7.01677470  19.94291283   0.57696651
 -6.91677470  19.95267767   0.58911183
 -6.81677470  19.96251186   0.60133127
 -6.71677470  19.97241527   0.61362436
 -6.61677470  19.98238780   0.62599062
 -6.51677470  19.99242930   0.63842956
 -6.41677470  20.00253965   0.65094066
 -6.31677470  20.01271870   0.66352342
 -6.21677470  20.02296630   0.67617730
 -6.11677470  20.03328229   0.68890175
 -6.01677470  20.04366652   0.70169622
 -5.91677470  20.05411883   0.71456015
 -5.81677470  20.06463903   0.72749295
 -5.71677470  20.07522695   0.74049404
 -5.61677470  20.08588241   0.75356281
 -5.51677470  20.09660521   0.76669865
 -5.41677470  20.10739517   0.77990094
 -5.31677470  20.11825208   0.79316903
 -5.21677470  20.12917574   0.80650229
 -5.11677470  20.14016594   0.81990006
 -5.01677470  20.15122246   0.83336166
 -4.91677470  20.16234509   0.84688641
 -4.81677470  20.17353360   0.86047364
 -4.71677470  20.18478775   0.87412263
 -4.61677470  20.19610733   0.88783268
 -4.51677470  20.20749209   0.90160307
 -4.41677470  20.21894179   0.91543307
 -4.31677470  20.23045618   0.92932194
 -4.21677470  20.24203501   0.94326894
 -4.11677470  20.25367804   0.95727329
 -4.01677470  20.26538500   0.97133425
 -3.91677470  20.27715564   0.98545103
 -3.81677470  20.28898968   0.99962284
 -3.71677470  20.30088688   1.01384891
 -3.61677470  20.31284695   1.02812842
 -3.51677470  20.32486962   1.04246057
 -3.41677470  20.33695463   1.05684454
 -3.31677470  20.34910168   1.07127951
 -3.21677470  20.36131051   1.08576465
 -3.11677470  20.37358083   1.10029912
 -3.01677470  20.38591237   1.11488207
 -2.91677470  20.39830482   1.12951265
 -2.81677470  20.41075791   1.14419001
 -2.71677470  20.42327136   1.15891328
 -2.61677470  20.43584486   1.17368159
 -2.51677470  20.44847813   1.18849406
 -2.41677470  20.46117088   1.20334982
 -2.31677470  20.47392281   1.21824797
 -2.21677470  20.48673364   1.23318763
 -2.11677470  20.49960307   1.24816790
 -2.01677470  20.51253081   1.26318788
 -1.91677470  20.52551656   1.27824666
 -1.81677470  20.53856003   1.29334334
 -1.71677470  20.55166094   1.30847700
 -1.61677470  20.56481898   1.32364672
 -1.51677470  20.57803386   1.33885160
 -1.41677470  20.59130531   1.35409070
 -1.31677470  20.60463302   1.36936311
 -1.21677470  20.61801671   1.38466789
 -1.11677470  20.63145609   1.40000411
 -1.01677470  20.64495088   1.41537085
 -0.91677470  20.65850080   1.43076718
 -0.81677470  20.67210556   1.44619215
 -0.71677470  20.68576488   1.46164484
 -0.61677470  20.69947850   1.47712431
 -0.51677470  20.71324613   1.49262963
 -0.41677470  20.72706751   1.50815985
 -0.31677470  20.74094237   1.52371405
 -0.21677470  20.75487044   1.53929128
 -0.11677470  20.76885147   1.55489062
 -0.01677470  20.78288519   1.57051112
  0.08322530  20.79697135   1.58615186
  0.18322530  20.81110970   1.60181190
  0.28322530  20.82529999   1.61749031
  0.38322530  20.83954198   1.63318617
  0.48322530  20.85383544   1.64889856
  0.58322530  20.86818013   1.66462654
  0.68322530  20.88257583   1.68036920
  0.78322530  20.89702230   1.69612562
  0.88322530  20.91151933   1.71189489
  0.98322530  20.92606671   1.72767609
  1.08322530  20.94066423   1.74346833
  1.18322530  20.95531169   1.75927069
  1.28322530  20.97000889   1.77508229
  1.38322530  20.98475564   1.79090222
  1.48322530  20.99955176   1.80672961
  1.58322530  21.01439706   1.82256356
  1.68322530  21.02929138   1.83840320
  1.78322530  21.04423455   1.85424766
  1.88322530  21.05922641   1.87009607
  1.98322530  21.07426680   1.88594756
  2.08322530  21.08935559   1.90180130
  2.18322530  21.10449263   1.91765643
  2.28322530  21.11967779   1.93351211
  2.38322530  21.13491095   1.94936750
  2.48322530  21.15019200   1.96522179
  2.58322530  21.16552081   1.98107415
  2.68322530  21.18089729   1.99692378
  2.78322530  21.19632135   2.01276986
  2.88322530  21.21179290   2.02861162
  2.98322530  21.22731186   2.04444825
  3.08322530  21.24287817   2.06027899
  3.18322530  21.25849175   2.07610307
  3.28322530  21.27415256   2.09191973
  3.38322530  21.28986055   2.10772821
  3.48322530  21.30561568   2.12352778
  3.58322530  21.32141793   2.13931771
  3.68322530  21.33726728   2.15509728
  3.78322530  21.35316370   2.17086577
  3.88322530  21.36910722   2.18662248
  3.98322530  21.38509782   2.20236673
  4.08322530  21.40113552   2.21809784
  4.18322530  21.41722035   2.23381513
  4.28322530  21.43335234   2.24951795
  4.38322530  21.44953154   2.26520565
  4.48322530  21.46575798   2.28087760
  4.58322530  21.48203175   2.29653317
  4.68322530  21.49835289   2.31217175
  4.78322530  21.51472150   2.32779274
  4.88322530  21.53113766   2.34339554
  4.98322530  21.54760146   2.35897958
  5.08322530  21.56411302   2.37454430
  5.18322530  21.58067245   2.39008913
  5.28322530  21.59727987   2.40561355
  5.38322530  21.61393542   2.42111702
  5.48322530  21.63063923   2.43659902
  5.58322530  21.64739147   2.45205905
  5.68322530  21.66419230   2.46749662
  5.78322530  21.68104188   2.48291125
  5.88322530  21.69794039   2.49830247
  5.98322530  21.71488803   2.51366984
  6.08322530  21.73188499   2.52901290
  6.18322530  21.74893148   2.54433124
  6.28322530  21.76602772   2.55962444
  6.38322530  21.78317392   2.57489210
  6.48322530  21.80037034   2.59013383
  6.58322530  21.81761720   2.60534926
  6.68322530  21.83491476   2.62053803
  6.78322530  21.85226329   2.63569978
  6.88322530  21.86966304   2.65083419
  6.98322530  21.88711430   2.66594094
  7.08322530  21.90461736   2.68101971
  7.18322530  21.92217251   2.69607021
  7.28322530  21.93978006   2.71109216
  7.38322530  21.95744031   2.72608530
  7.48322530  21.97515358   2.74104936
  7.58322530  21.99292021   2.75598411
  7.68322530  22.01074053   2.77088933
  7.78322530  22.02861488   2.78576479
  7.88322530  22.04654361   2.80061030
  7.98322530  22.06452708   2.81542566
  8.08322530  22.08256567   2.83021071
  8.18322530  22.10065973   2.84496528
  8.28322530  22.11880966   2.85968923
  8.38322530  22.13701584   2.87438242
  8.48322530  22.15527866   2.88904473
  8.58322530  22.17359853   2.90367605
  8.68322530  22.19197585   2.91827629
  8.78322530  22.21041105   2.93284535
  8.88322530  22.22890453   2.94738318
  8.98322530  22.24745673   2.96188972
  9.08322530  22.26606807   2.97636491
  9.18322530  22.28473901   2.99080873
  9.28322530  22.30346998   3.00522116
  9.38322530  22.32226142   3.01960218
  9.48322530  22.34111381   3.03395181
  9.58322530  22.36002758   3.04827007
  9.68322530  22.37900322   3.06255697
  9.78322530  22.39804119   3.07681256
  9.88322530  22.41714195   3.09103690
  9.98322530  22.43630600   3.10523004
 10.08322530  22.45553381   3.11939207
 10.18322530  22.47482587   3.13352307
 10.28322530  22.49418266   3.14762313
 10.38322530  22.51360468   3.16169237
 10.48322530  22.53309242   3.17573091
 10.58322530  22.55264639   3.18973888
 10.68322530  22.57226708   3.20371641
 10.78322530  22.59195499   3.21766367
 10.88322530  22.61171064   3.23158081
 10.98322530  22.63153454   3.24546801
 11.08322530  22.65142718   3.25932544
 11.18322530  22.67138908   3.27315331
 11.28322530  22.69142076   3.28695182
 11.38322530  22.71152273   3.30072116
 11.48322530  22.73169551   3.31446157
 11.58322530  22.75193960   3.32817328
 11.68322530  22.77225552   3.34185652
 11.78322530  22.79264379   3.35551155
 11.88322530  22.81310493   3.36913861
 11.98322530  22.83363945   3.38273797
 12.08322530  22.85424786   3.39630991
 12.18322530  22.87493067   3.40985471
 12.28322530  22.89568841   3.42337264
 12.38322530  22.91652157   3.43686402
 12.48322530  22.93743068   3.45032914
 12.58322530  22.95841622   3.46376831
 12.68322530  22.97947872   3.47718185
 12.78322530  23.00061867   3.49057008
 12.88322530  23.02183657   3.50393334
 12.98322530  23.04313291   3.51727196
 13.08322530  23.06450820   3.53058629
 13.18322530  23.08596292   3.54387666
 13.28322530  23.10749755   3.55714345
 13.38322530  23.12911258   3.57038700
 13.48322530  23.15080849   3.58360768
 13.58322530  23.17258575   3.59680586
 13.68322530  23.19444482   3.60998193
 13.78322530  23.21638617   3.62313624
 13.88322530  23.23841026   3.63626920
 13.98322530  23.26051753   3.64938119
 14.08322530  23.28270844   3.66247259
 14.18322530  23.30498343   3.67554381
 14.28322530  23.32734292   3.68859525
 14.38322530  23.34978735   3.70162730
 14.48322530  23.37231713   3.71464037
 14.58322530  23.39493268   3.72763487
 14.68322530  23.41763440   3.74061122
 14.78322530  23.44042269   3.75356981
 14.88322530  23.46329794   3.76651107
 14.98322530  23.48626053   3.77943542
 15.08322530  23.50931084   3.79234327
 15.18322530  23.53244923   3.80523504
 15.28322530  23.55567605   3.81811116
 15.38322530  23.57899165   3.83097204
 15.48322530  23.60239636   3.84381811
 15.58322530  23.62589053   3.85664980
 15.68322530  23.64947445   3.86946752
 15.78322530  23.67314844   3.88227170
 15.88322530  23.69691281   3.89506277
 15.98322530  23.72076782   3.90784115
 16.08322530  23.74471376   3.92060726
 16.18322530  23.76875090   3.93336153
 16.28322530  23.79287948   3.94610437
 16.38322530  23.81709975   3.95883621
 16.48322530  23.84141194   3.97155746
 16.58322530  23.86581627   3.98426855
 16.68322530  23.89031294   3.99696989
 16.78322530  23.91490215   4.00966190
 16.88322530  23.93958408   4.02234498
 16.98322530  23.96435890   4.03501955
 17.08322530  23.98922676   4.04768601
 17.18322530  24.01418782   4.06034477
 17.28322530  24.03924219   4.07299622
 17.38322530  24.06438999   4.08564078
 17.48322530  24.08963133   4.09827883
 17.58322530  24.11496630   4.11091077
 17.68322530  24.14039497   4.12353697
 17.78322530  24.16591741   4.13615784
