#      z (A) rho (1e-6/A2) irho (1e-6/A2) rhoM (1e-6/A2) theta (degrees)
-89.26359957   2.07228622   0.00000000   0.00000000 270.00000000
-89.16359957   2.07226722   0.00000000   0.00000000 270.00000000
-89.06359957   2.07224802   0.00000000   0.00000000 270.00000000
-88.96359957   2.07222863   0.00000000   0.00000000 270.00000000
-88.86359957   2.07220904   0.00000000   0.00000000 270.00000000
-88.76359957   2.07218925   0.00000000   0.00000000 270.00000000
-88.66359957   2.07216927   0.00000000   0.00000000 270.00000000
-88.56359957   2.07214908   0.00000000   0.00000000 270.00000000
-88.46359957   2.07212870   0.00000000   0.00000000 270.00000000
-88.36359957   2.07210810   0.00000000   0.00000000 270.00000000
-88.26359957   2.07208730   0.00000000   0.00000000 270.00000000
-88.16359957   2.07206629   0.00000000   0.00000000 270.00000000
-88.06359957   2.07204507   0.00000000   0.00000000 270.00000000
-87.96359957   2.07202364   0.00000000   0.00000000 270.00000000
-87.86359957   2.07200200   0.00000000   0.00000000 270.00000000
-87.76359957   2.07198014   0.00000000   0.00000000 270.00000000
-87.66359957   2.07195806   0.00000000   0.00000000 270.00000000
-87.56359957   2.07193576   0.00000000   0.00000000 270.00000000
-87.46359957   2.07191324   0.00000000   0.00000000 270.00000000
-87.36359957   2.07189050   0.00000000   0.00000000 270.00000000
-87.26359957   2.07186753   0.00000000   0.00000000 270.00000000
-87.16359957   2.07184433   0.00000000   0.00000000 270.00000000
-87.06359957   2.07182091   0.00000000   0.00000000 270.00000000
-86.96359957   2.07179725   0.00000000   0.00000000 270.00000000
-86.86359957   2.07177336   0.00000000   0.00000000 270.00000000
-86.76359957   2.07174923   0.00000000   0.00000000 270.00000000
-86.66359957   2.07172487   0.00000000   0.00000000 270.00000000
-86.56359957   2.07170026   0.00000000   0.00000000 270.00000000
-86.46359957   2.07167542   0.00000000   0.00000000 270.00000000
-86.36359957   2.07165033   0.00000000   0.00000000 270.00000000
-86.26359957   2.07162499   0.00000000   0.00000000 270.00000000
-86.16359957   2.07159941   0.00000000   0.00000000 270.00000000
-86.06359957   2.07157358   0.00000000   0.00000000 270.00000000
-85.96359957   2.07154749   0.00000000   0.00000000 270.00000000
-85.86359957   2.07152115   0.00000000   0.00000000 270.00000000
-85.76359957   2.07149455   0.00000000   0.00000000 270.00000000
-85.66359957   2.07146770   0.00000000   0.00000000 270.00000000
-85.56359957   2.07144058   0.00000000   0.00000000 270.00000000
-85.46359957   2.07141320   0.00000000   0.00000000 270.00000000
-85.36359957   2.07138555   0.00000000   0.00000000 270.00000000
-85.26359957   2.07135764   0.00000000   0.00000000 270.00000000
-85.16359957   2.07132946   0.00000000   0.00000000 270.00000000
-85.06359957   2.07130100   0.00000000   0.00000000 270.00000000
-84.96359957   2.07127227   0.00000000   0.00000000 270.00000000
-84.86359957   2.07124326   0.00000000   0.00000000 270.00000000
-84.76359957   2.07121397   0.00000000   0.00000000 270.00000000
-84.66359957   2.07118440   0.00000000   0.00000000 270.00000000
-84.56359957   2.07115455   0.00000000   0.00000000 270.00000000
-84.46359957   2.07112441   0.00000000   0.00000000 270.00000000
-84.36359957   2.07109398   0.00000000   0.00000000 270.00000000
-84.26359957   2.07106326   0.00000000   0.00000000 270.00000000
-84.16359957   2.07103225   0.00000000   0.00000000 270.00000000
-84.06359957   2.07100094   0.00000000   0.00000000 270.00000000
-83.96359957   2.07096933   0.00000000   0.00000000 270.00000000
-83.86359957   2.07093742   0.00000000   0.00000000 270.00000000
-83.76359957   2.07090520   0.00000000   0.00000000 270.00000000
-83.66359957   2.07087268   0.00000000   0.00000000 270.00000000
-83.56359957   2.07083985   0.00000000   0.00000000 270.00000000
-83.46359957   2.07080671   0.00000000   0.00000000 270.00000000
-83.36359957   2.07077326   0.00000000   0.00000000 270.00000000
-83.26359957   2.07073949   0.00000000   0.00000000 270.00000000
-83.16359957   2.07070540   0.00000000   0.00000000 270.00000000
-83.06359957   2.07067099   0.00000000   0.00000000 270.00000000
-82.96359957   2.07063625   0.00000000   0.00000000 270.00000000
-82.86359957   2.07060119   0.00000000   0.00000000 270.00000000
-82.76359957   2.07056579   0.00000000   0.00000000 270.00000000
-82.66359957   2.07053007   0.00000000   0.00000000 270.00000000
-82.56359957   2.07049401   0.00000000   0.00000000 270.00000000
-82.46359957   2.07045761   0.00000000   0.00000000 270.00000000
-82.36359957   2.07042087   0.00000000   0.00000000 270.00000000
-82.26359957   2.07038379   0.00000000   0.00000000 270.00000000
-82.16359957   2.07034636   0.00000000   0.00000000 270.00000000
-82.06359957   2.07030858   0.00000000   0.00000000 270.00000000
-81.96359957   2.07027046   0.00000000   0.00000000 270.00000000
-81.86359957   2.07023197   0.00000000   0.00000000 270.00000000
-81.76359957   2.07019313   0.00000000   0.00000000 270.00000000
-81.66359957   2.07015393   0.00000000   0.00000000 270.00000000
-81.56359957   2.07011436   0.00000000   0.00000000 270.00000000
-81.46359957   2.07007443   0.00000000   0.00000000 270.00000000
-81.36359957   2.07003413   0.00000000   0.00000000 270.00000000
-81.26359957   2.06999346   0.00000000   0.00000000 270.00000000
-81.16359957   2.06995241   0.00000000   0.00000000 270.00000000
-81.06359957   2.06991099   0.00000000   0.00000000 270.00000000
-80.96359957   2.06986918   0.00000000   0.00000000 270.00000000
-80.86359957   2.06982699   0.00000000   0.00000000 270.00000000
-80.76359957   2.06978442   0.00000000   0.00000000 270.00000000
-80.66359957   2.06974145   0.00000000   0.00000000 270.00000000
-80.56359957   2.06969809   0.00000000   0.00000000 270.00000000
-80.46359957   2.06965433   0.00000000   0.00000000 270.00000000
-80.36359957   2.06961017   0.00000000   0.00000000 270.00000000
-80.26359957   2.06956561   0.00000000   0.00000000 270.00000000
-80.16359957   2.06952065   0.00000000   0.00000000 270.00000000
-80.06359957   2.06947527   0.00000000   0.00000000 270.00000000
-79.96359957   2.06942949   0.00000000   0.00000000 270.00000000
-79.86359957   2.06938329   0.00000000   0.00000000 270.00000000
-79.76359957   2.06933666   0.00000000   0.00000000 270.00000000
-79.66359957   2.06928962   0.00000000   0.00000000 270.00000000
-79.56359957   2.06924215   0.00000000   0.00000000 270.00000000
-79.46359957   2.06919426   0.00000000   0.00000000 270.00000000
-79.36359957   2.06914593   0.00000000   0.00000000 270.00000000
-79.26359957   2.06909717   0.00000000   0.00000000 270.00000000
-79.16359957   2.06904797   0.00000000   0.00000000 270.00000000
-79.06359957   2.06899832   0.00000000   0.00000000 270.00000000
-78.96359957   2.06894823   0.00000000   0.00000000 270.00000000
-78.86359957   2.06889770   0.00000000   0.00000000 270.00000000
-78.76359957   2.06884671   0.00000000   0.00000000 270.00000000
-78.66359957   2.06879526   0.00000000   0.00000000 270.00000000
-78.56359957   2.06874336   0.00000000   0.00000000 270.00000000
-78.46359957   2.06869099   0.00000000   0.00000000 270.00000000
-78.36359957   2.06863815   0.00000000   0.00000000 270.00000000
-78.26359957   2.06858485   0.00000000   0.00000000 270.00000000
-78.16359957   2.06853107   0.00000000   0.00000000 270.00000000
-78.06359957   2.06847682   0.00000000   0.00000000 270.00000000
-77.96359957   2.06842209   0.00000000   0.00000000 270.00000000
-77.86359957   2.06836687   0.00000000   0.00000000 270.00000000
-77.76359957   2.06831116   0.00000000   0.00000000 270.00000000
-77.66359957   2.06825497   0.00000000   0.00000000 270.00000000
-77.56359957   2.06819827   0.00000000   0.00000000 270.00000000
-77.46359957   2.06814108   0.00000000   0.00000000 270.00000000
-77.36359957   2.06808339   0.00000000   0.00000000 270.00000000
-77.26359957   2.06802519   0.00000000   0.00000000 270.00000000
-77.16359957   2.06796648   0.00000000   0.00000000 270.00000000
-77.06359957   2.06790725   0.00000000   0.00000000 270.00000000
-76.96359957   2.06784751   0.00000000   0.00000000 270.00000000
-76.86359957   2.06778725   0.00000000   0.00000000 270.00000000
-76.76359957   2.06772646   0.00000000   0.00000000 270.00000000
-76.66359957   2.06766514   0.00000000   0.00000000 270.00000000
-76.56359957   2.06760329   0.00000000   0.00000000 270.00000000
-76.46359957   2.06754090   0.00000000   0.00000000 270.00000000
-76.36359957   2.06747797   0.00000000   0.00000000 270.00000000
-76.26359957   2.06741449   0.00000000   0.00000000 270.00000000
-76.16359957   2.06735047   0.00000000   0.00000000 270.00000000
-76.06359957   2.06728589   0.00000000   0.00000000 270.00000000
-75.96359957   2.06722076   0.00000000   0.00000000 270.00000000
-75.86359957   2.06715506   0.00000000   0.00000000 270.00000000
-75.76359957   2.06708880   0.00000000   0.00000000 270.00000000
-75.66359957   2.06702197   0.00000000   0.00000000 270.00000000
-75.56359957   2.06695456   0.00000000   0.00000000 270.00000000
-75.46359957   2.06688658   0.00000000   0.00000000 270.00000000
-75.36359957   2.06681802   0.00000000   0.00000000 270.00000000
-75.26359957   2.06674887   0.00000000   0.00000000 270.00000000
-75.16359957   2.06667913   0.00000000   0.00000000 270.00000000
-75.06359957   2.06660879   0.00000000   0.00000000 270.00000000
-74.96359957   2.06653786   0.00000000   0.00000000 270.00000000
-74.86359957   2.06646632   0.00000000   0.00000000 270.00000000
-74.76359957   2.06639418   0.00000000   0.00000000 270.00000000
-74.66359957   2.06632142   0.00000000   0.00000000 270.00000000
-74.56359957   2.06624805   0.00000000   0.00000000 270.00000000
-74.46359957   2.06617405   0.00000000   0.00000000 270.00000000
-74.36359957   2.06609943   0.00000000   0.00000000 270.00000000
-74.26359957   2.06602419   0.00000000   0.00000000 270.00000000
-74.16359957   2.06594830   0.00000000   0.00000000 270.00000000
-74.06359957   2.06587178   0.00000000   0.00000000 270.00000000
-73.96359957   2.06579462   0.00000000   0.00000000 270.00000000
-73.86359957   2.06571681   0.00000000   0.00000000 270.00000000
-73.76359957   2.06563835   0.00000000   0.00000000 270.00000000
-73.66359957   2.06555923   0.00000000   0.00000000 270.00000000
-73.56359957   2.06547945   0.00000000   0.00000000 270.00000000
-73.46359957   2.06539901   0.00000000   0.00000000 270.00000000
-73.36359957   2.06531789   0.00000000   0.00000000 270.00000000
-73.26359957   2.06523610   0.00000000   0.00000000 270.00000000
-73.16359957   2.06515363   0.00000000   0.00000000 270.00000000
-73.06359957   2.06507048   0.00000000   0.00000000 270.00000000
-72.96359957   2.06498663   0.00000000   0.00000000 270.00000000
-72.86359957   2.06490209   0.00000000   0.00000000 270.00000000
-72.76359957   2.06481686   0.00000000   0.00000000 270.00000000
-72.66359957   2.06473092   0.00000000   0.00000000 270.00000000
-72.56359957   2.06464427   0.00000000   0.00000000 270.00000000
-72.46359957   2.06455691   0.00000000   0.00000000 270.00000000
-72.36359957   2.06446883   0.00000000   0.00000000 270.00000000
-72.26359957   2.06438003   0.00000000   0.00000000 270.00000000
-72.16359957   2.06429050   0.00000000   0.00000000 270.00000000
-72.06359957   2.06420024   0.00000000   0.00000000 270.00000000
-71.96359957   2.06410924   0.00000000   0.00000000 270.00000000
-71.86359957   2.06401750   0.00000000   0.00000000 270.00000000
-71.76359957   2.06392501   0.00000000   0.00000000 270.00000000
-71.66359957   2.06383176   0.00000000   0.00000000 270.00000000
-71.56359957   2.06373776   0.00000000   0.00000000 270.00000000
-71.46359957   2.06364300   0.00000000   0.00000000 270.00000000
-71.36359957   2.06354747   0.00000000   0.00000000 270.00000000
-71.26359957   2.06345116   0.00000000   0.00000000 270.00000000
-71.16359957   2.06335408   0.00000000   0.00000000 270.00000000
-71.06359957   2.06325621   0.00000000   0.00000000 270.00000000
-70.96359957   2.06315756   0.00000000   0.00000000 270.00000000
-70.86359957   2.06305811   0.00000000   0.00000000 270.00000000
-70.76359957   2.06295786   0.00000000   0.00000000 270.00000000
-70.66359957   2.06285680   0.00000000   0.00000000 270.00000000
-70.56359957   2.06275494   0.00000000   0.00000000 270.00000000
-70.46359957   2.06265226   0.00000000   0.00000000 270.00000000
-70.36359957   2.06254876   0.00000000   0.00000000 270.00000000
-70.26359957   2.06244444   0.00000000   0.00000000 270.00000000
-70.16359957   2.06233928   0.00000000   0.00000000 270.00000000
-70.06359957   2.06223329   0.00000000   0.00000000 270.00000000
-69.96359957   2.06212646   0.00000000   0.00000000 270.00000000
-69.86359957   2.06201878   0.00000000   0.00000000 270.00000000
-69.76359957   2.06191024   0.00000000   0.00000000 270.00000000
-69.66359957   2.06180085   0.00000000   0.00000000 270.00000000
-69.56359957   2.06169059   0.00000000   0.00000000 270.00000000
-69.46359957   2.06157946   0.00000000   0.00000000 270.00000000
-69.36359957   2.06146746   0.00000000   0.00000000 270.00000000
-69.26359957   2.06135457   0.00000000   0.00000000 270.00000000
-69.16359957   2.06124080   0.00000000   0.00000000 270.00000000
-69.06359957   2.06112614   0.00000000   0.00000000 270.00000000
-68.96359957   2.06101058   0.00000000   0.00000000 270.00000000
-68.86359957   2.06089411   0.00000000   0.00000000 270.00000000
-68.76359957   2.06077674   0.00000000   0.00000000 270.00000000
-68.66359957   2.06065845   0.00000000   0.00000000 270.00000000
-68.56359957   2.06053924   0.00000000   0.00000000 270.00000000
-68.46359957   2.06041910   0.00000000   0.00000000 270.00000000
-68.36359957   2.06029803   0.00000000   0.00000000 270.00000000
-68.26359957   2.06017603   0.00000000   0.00000000 270.00000000
-68.16359957   2.06005307   0.00000000   0.00000000 270.00000000
-68.06359957   2.05992917   0.00000000   0.00000000 270.00000000
-67.96359957   2.05980431   0.00000000   0.00000000 270.00000000
-67.86359957   2.05967849   0.00000000   0.00000000 270.00000000
-67.76359957   2.05955170   0.00000000   0.00000000 270.00000000
-67.66359957   2.05942394   0.00000000   0.00000000 270.00000000
-67.56359957   2.05929519   0.00000000   0.00000000 270.00000000
-67.46359957   2.05916546   0.00000000   0.00000000 270.00000000
-67.36359957   2.05903474   0.00000000   0.00000000 270.00000000
-67.26359957   2.05890302   0.00000000   0.00000000 270.00000000
-67.16359957   2.05877030   0.00000000   0.00000000 270.00000000
-67.06359957   2.05863656   0.00000000   0.00000000 270.00000000
-66.96359957   2.05850181   0.00000000   0.00000000 270.00000000
-66.86359957   2.05836603   0.00000000   0.00000000 270.00000000
-66.76359957   2.05822923   0.00000000   0.00000000 270.00000000
-66.66359957   2.05809139   0.00000000   0.00000000 270.00000000
-66.56359957   2.05795250   0.00000000   0.00000000 270.00000000
-66.46359957   2.05781257   0.00000000   0.00000000 270.00000000
-66.36359957   2.05767159   0.00000000   0.00000000 270.00000000
-66.26359957   2.05752954   0.00000000   0.00000000 270.00000000
-66.16359957   2.05738643   0.00000000   0.00000000 270.00000000
-66.06359957   2.05724224   0.00000000   0.00000000 270.00000000
-65.96359957   2.05709697   0.00000000   0.00000000 270.00000000
-65.86359957   2.05695062   0.00000000   0.00000000 270.00000000
-65.76359957   2.05680318   0.00000000   0.00000000 270.00000000
-65.66359957   2.05665463   0.00000000   0.00000000 270.00000000
-65.56359957   2.05650498   0.00000000   0.00000000 270.00000000
-65.46359957   2.05635422   0.00000000   0.00000000 270.00000000
-65.36359957   2.05620233   0.00000000   0.00000000 270.00000000
-65.26359957   2.05604933   0.00000000   0.00000000 270.00000000
-65.16359957   2.05589519   0.00000000   0.00000000 270.00000000
-65.06359957   2.05573991   0.00000000   0.00000000 270.00000000
-64.96359957   2.05558348   0.00000000   0.00000000 270.00000000
-64.86359957   2.05542591   0.00000000   0.00000000 270.00000000
-64.76359957   2.05526717   0.00000000   0.00000000 270.00000000
-64.66359957   2.05510727   0.00000000   0.00000000 270.00000000
-64.56359957   2.05494620   0.00000000   0.00000000 270.00000000
-64.46359957   2.05478395   0.00000000   0.00000000 270.00000000
-64.36359957   2.05462051   0.00000000   0.00000000 270.00000000
-64.26359957   2.05445588   0.00000000   0.00000000 270.00000000
-64.16359957   2.05429005   0.00000000   0.00000000 270.00000000
-64.06359957   2.05412302   0.00000000   0.00000000 270.00000000
-63.96359957   2.05395477   0.00000000   0.00000000 270.00000000
-63.86359957   2.05378530   0.00000000   0.00000000 270.00000000
-63.76359957   2.05361461   0.00000000   0.00000000 270.00000000
-63.66359957   2.05344268   0.00000000   0.00000000 270.00000000
-63.56359957   2.05326951   0.00000000   0.00000000 270.00000000
-63.46359957   2.05309509   0.00000000   0.00000000 270.00000000
-63.36359957   2.05291942   0.00000000   0.00000000 270.00000000
-63.26359957   2.05274249   0.00000000   0.00000000 270.00000000
-63.16359957   2.05256428   0.00000000   0.00000000 270.00000000
-63.06359957   2.05238481   0.00000000   0.00000000 270.00000000
-62.96359957   2.05220404   0.00000000   0.00000000 270.00000000
-62.86359957   2.05202199   0.00000000   0.00000000 270.00000000
-62.76359957   2.05183864   0.00000000   0.00000000 270.00000000
-62.66359957   2.05165399   0.00000000   0.00000000 270.00000000
-62.56359957   2.05146803   0.00000000   0.00000000 270.00000000
-62.46359957   2.05128074   0.00000000   0.00000000 270.00000000
-62.36359957   2.05109213   0.00000000   0.00000000 270.00000000
-62.26359957   2.05090219   0.00000000   0.00000000 270.00000000
-62.16359957   2.05071090   0.00000000   0.00000000 270.00000000
-62.06359957   2.05051827   0.00000000   0.00000000 270.00000000
-61.96359957   2.05032429   0.00000000   0.00000000 270.00000000
-61.86359957   2.05012894   0.00000000   0.00000000 270.00000000
-61.76359957   2.04993222   0.00000000   0.00000000 270.00000000
-61.66359957   2.04973412   0.00000000   0.00000000 270.00000000
-61.56359957   2.04953464   0.00000000   0.00000000 270.00000000
-61.46359957   2.04933377   0.00000000   0.00000000 270.00000000
-61.36359957   2.04913150   0.00000000   0.00000000 270.00000000
-61.26359957   2.04892782   0.00000000   0.00000000 270.00000000
-61.16359957   2.04872273   0.00000000   0.00000000 270.00000000
-61.06359957   2.04851621   0.00000000   0.00000000 270.00000000
-60.96359957   2.04830827   0.00000000   0.00000000 270.00000000
-60.86359957   2.04809889   0.00000000   0.00000000 270.00000000
-60.76359957   2.04788806   0.00000000   0.00000000 270.00000000
-60.66359957   2.04767578   0.00000000   0.00000000 270.00000000
-60.56359957   2.04746205   0.00000000   0.00000000 270.00000000
-60.46359957   2.04724684   0.00000000   0.00000000 270.00000000
-60.36359957   2.04703016   0.00000000   0.00000000 270.00000000
-60.26359957   2.04681200   0.00000000   0.00000000 270.00000000
-60.16359957   2.04659235   0.00000000   0.00000000 270.00000000
-60.06359957   2.04637120   0.00000000   0.00000000 270.00000000
-59.96359957   2.04614855   0.00000000   0.00000000 270.00000000
-59.86359957   2.04592438   0.00000000   0.00000000 270.00000000
-59.76359957   2.04569869   0.00000000   0.00000000 270.00000000
-59.66359957   2.04547147   0.00000000   0.00000000 270.00000000
-59.56359957   2.04524272   0.00000000   0.00000000 270.00000000
-59.46359957   2.04501242   0.00000000   0.00000000 270.00000000
-59.36359957   2.04478057   0.00000000   0.00000000 270.00000000
-59.26359957   2.04454716   0.00000000   0.00000000 270.00000000
-59.16359957   2.04431219   0.00000000   0.00000000 270.00000000
-59.06359957   2.04407563   0.00000000   0.00000000 270.00000000
-58.96359957   2.04383750   0.00000000   0.00000000 270.00000000
-58.86359957   2.04359777   0.00000000   0.00000000 270.00000000
-58.76359957   2.04335644   0.00000000   0.00000000 270.00000000
