# intensity: 0.994720459856178
# background: 4.48602120708249e-07
#           Q (1/A)             dQ (1/A)                    R                   dR               theory              fresnel
      0.010084459364     0.00010301271332        0.99060473148       0.010563542732     0.99347803850173    0.877665538940623
      0.010527572831     0.00010516249785        0.97661193666       0.010441279393    0.988076298938567    0.408910220235967
      0.010957382779      0.0001072922675        0.98807846201       0.010539424411    0.981985386155273    0.223621936987095
      0.011400472385     0.00010953100917        0.96423061548       0.010304250072    0.974594767025481    0.148815096759454
      0.011830312024     0.00011174221746        0.95560004233       0.010292935543     0.96532294470894    0.108380700048197
      0.012277757864     0.00011408277381        0.94663621366       0.010226899042    0.952452735538739   0.0817106401022911
      0.012716371148     0.00011641324928        0.91241736146      0.0099023999243    0.935375053392215   0.0639207934958815
      0.013159412929     0.00011880140158        0.90662362274      0.0099148818247    0.911952152866821   0.0510752289750132
      0.013593700546     0.00012117372412        0.87333413658      0.0096539643153    0.880867361491131   0.0417382968889498
      0.014041082168      0.0001236481371        0.82494481857      0.0092914956277    0.837857447890106   0.0344165236249443
      0.014470975218     0.00012605336378        0.77726404339      0.0088960595594    0.783407355375423   0.0289379253539117
        0.0149139815     0.00012855857508        0.70004077822      0.0083146786816    0.711809001875625   0.0244608029949003
      0.015348249037     0.00013103911185         0.6171389073      0.0076590667876    0.626341300485471   0.0209301545527382
      0.015791263766     0.00013359342958        0.51371586062      0.0067930791659    0.527095899503395   0.0179963629336567
      0.016221121047     0.00013609360472        0.43210146033      0.0060959127578     0.42687488026942   0.0156499999846127
      0.016668542802      0.0001387174039        0.33747504569       0.005248827174    0.329530720208235   0.0136194338996349
      0.017107181564     0.00014130978984        0.25900984995      0.0044799239449    0.251318009882856   0.0119518762601984
      0.017550214409     0.00014394723651        0.20568003341      0.0039319426566     0.19533497694502   0.0105294459650796
      0.017984456025     0.00014654997154         0.1669950762       0.003509855619    0.162661501864366  0.00934273813912062
      0.018427478239     0.00014922236187        0.14938067717       0.003299486706    0.147490403464939  0.00830560077453436
       0.01885736761     0.00015183111866        0.14723470632      0.0032760406905    0.144573860585801  0.00743800748201525
      0.019304756228     0.00015456152523        0.14685990505      0.0032660539884     0.14843479426972  0.00665597717122396
      0.019734613428     0.00015719903462        0.15368559444      0.0033443112594     0.15481881811993  0.00600191268502471
      0.020177706922     0.00015993148633         0.1602731667      0.0034167878142    0.161522226105417  0.00541224874968487
       0.02061186743     0.00016262169732        0.17100579443      0.0035525634992    0.166675144246321  0.00490497780366708
      0.021059259083     0.00016540653623        0.17073016209      0.0035537884473     0.16971726665473  0.00444450422873572
      0.021489170283     0.00016809406952        0.17086757139      0.0035497180809    0.170161513038121  0.00405314586221104
      0.021940947339     0.00021434759213         0.1692637428      0.0026716588365    0.167698414477897  0.00369321136508089
      0.022809438424     0.00022268882966        0.16493713409      0.0025946367965    0.156619027527529  0.00310452426028764
      0.023677926785     0.00023152492749        0.15289596595      0.0024264399802    0.138795406412286  0.00262828525680082
      0.024563957741     0.00023977165934        0.10751506407       0.001771634727    0.116212073776521  0.00223448846231229
      0.025441211656     0.00024841709665       0.088303047982       0.001561088994   0.0922742919210089  0.00191573726602754
      0.026318465085     0.00025727095267       0.068349112281      0.0013286146911   0.0692601567137427  0.00165273318575068
      0.027195712694     0.00026526542577       0.049524514207      0.0011004025389    0.049121112153049  0.00143398934492139
      0.028081730878     0.00027403269465       0.034293302921     0.00089206670517   0.0329432306475977  0.00124906408064669
      0.028958971718     0.00028296429757       0.018804220474     0.00058659298013   0.0214888659623607  0.00109477793581542
      0.029836209028     0.00029111479763       0.013705831285     0.00049383275271   0.0143093218021547  0.00096388187703368
      0.030713445318     0.00030012434974       0.010048379471     0.00041549791918   0.0106245418487323 0.000852201028459101
      0.031590675251     0.00030874335659       0.010111023927     0.00041146399441  0.00939098013125333 0.000756405604377028
      0.032467901335     0.00031689352918       0.010969321906     0.00042429264199  0.00954248721887469 0.000673820109470791
       0.03332758136     0.00032568473559      0.0098383634437     0.00036540716198   0.0101518459561945 0.000603658913725189
      0.034204799507     0.00033404300924       0.010851910149     0.00038047154869   0.0105908391614889 0.000541334602021405
      0.035090787068     0.00034280985761       0.010917955803     0.00037558170666   0.0104622946500893 0.000486399764459903
      0.035967996729     0.00035132425919      0.0098426088646     0.00035303089459  0.00965051063007637 0.000438755990315301
      0.036836431128     0.00035961236078      0.0084111982931     0.00032236632455   0.0082615269415649 0.000397257196317708
      0.037722405411     0.00036840492659      0.0057966679994     0.00024818375104  0.00646798339285379 0.000359897350825259
      0.038599601604     0.00037697116591      0.0038792333272     0.00020073374987  0.00459484398181169 0.000327166018936423
      0.039485566449     0.00038539915318      0.0025842110391     0.00016161373813   0.0028669220502184 0.000297825616481603
      0.040353982388     0.00039431172731      0.0017345313562     0.00013042738943  0.00152400261015077 0.000272216534236146
      0.041239934792     0.00040263527116     0.00064574131373     8.0171699803e-05 0.000609007586315517 0.000248885657612451
      0.042108340889     0.00041131333225     0.00023416108467     4.6696911305e-05 0.000159124456143288 0.000228409158489938
      0.042985515111     0.00042006142086     0.00015610114762     3.8210426241e-05 7.86557224620795e-05 0.000209838833013934
      0.043866209055      0.0004280720557     0.00025480721667     2.1302382721e-05  0.00025046031300583 0.000193064497515822
      0.044735457301     0.00043688417251     0.00051173089549      3.261978336e-05 0.000533639699894947 0.000178132734972669
      0.045612620416     0.00044544968185     0.00078277188085     3.9724786217e-05 0.000813948816533485  0.00016451166111125
      0.046489763366     0.00045380677604     0.00093441709267     4.0937920787e-05  0.00100401735932828 0.000152176632583341
      0.047366915585      0.0004626844313      0.0010145532947     4.2196659438e-05  0.00106293204574593 0.000140985119239285
       0.04824844089     0.00047132363435     0.00096160097525     4.0784638105e-05 0.000991291001292745 0.000130761998504725
       0.04912119229     0.00047960632295     0.00086465326153     3.8348221521e-05 0.000823992497034079  0.00012154519264904
      0.050011468368     0.00048852355243     0.00068963043601     3.4014001444e-05 0.000606853233414275 0.000112970330521123
      0.050879816289     0.00049678399101     0.00036017012694     2.3287691287e-05 0.000404136536016575 0.000105327883366825
      0.051761322925       0.000505422741     0.00024880926448     1.9343909614e-05 0.000253273855918689  9.8225438114651e-05
      0.052638450221     0.00051429985912     0.00019947610649     1.7251630699e-05 0.000186905190993694 9.17468490435308e-05
      0.053515512709     0.00052247371234     0.00022799455419     1.8200968138e-05  0.00021290085324708 8.57983075371414e-05
      0.054392614543      0.0005312981476     0.00034808421059     2.2157159558e-05 0.000321335723987161  8.0328078168739e-05
      0.055269714896     0.00053973220977     0.00052927154891     2.5849477114e-05 0.000487926563994954 7.52905025961493e-05
      0.056146810558      0.0005480620818     0.00068824838884     2.9249240014e-05 0.000680524325575726 7.06450224445291e-05
      0.057019490052     0.00055704650816     0.00089515830071      3.308099682e-05 0.000864702959944231 6.63765947274215e-05
      0.057896529632     0.00056527167281      0.0010591260595     3.5810883106e-05  0.00101329906335093 6.24096876445933e-05
      0.058773635908     0.00057404378496      0.0012324090159     3.8517399444e-05  0.00110458629944501 5.87373378844803e-05
      0.059650704635     0.00058280249683      0.0011456778657     3.5577749008e-05  0.00112839592022704 5.53339538721522e-05
      0.060527730232     0.00059098838396      0.0011764075893     3.5885425852e-05  0.00108538172632751 5.21760057609357e-05
      0.061395988252     0.00059971579702      0.0010522867485     3.3699316235e-05 0.000986580518782536 4.92711065976898e-05
      0.062277413246     0.00060817074088     0.00092151015127     3.1355730135e-05 0.000845794049615012 4.65283361814798e-05
      0.063154441007     0.00061649948696     0.00072590486596     2.7639608255e-05 0.000685469518067615 4.39881235836731e-05
      0.064035837499     0.00062547460148     0.00051347313404     2.2215963887e-05 0.000524569723065163 4.16096139135925e-05
      0.064904074592     0.00063391515377      0.0003680230663     1.8721246415e-05 0.000383736445039188 3.94237244192277e-05
      0.065785465608     0.00064249966754     0.00026310394387      1.577293957e-05 0.000271418738830861 3.73516186618444e-05
      0.066666839476     0.00065113598309     0.00020685113679     1.3954871944e-05 0.000196480909407185  3.5415628784592e-05
      0.067543824032     0.00065933380044     0.00015530768455     1.2103251412e-05 0.000159144950602948 3.36138930723217e-05
      0.068420800357     0.00066805191461     0.00017131597787     1.2209214409e-05 0.000153518607884524 3.19270681456831e-05
      0.069297773573     0.00067697826677     0.00017203442999     1.2184781878e-05 0.000170146566241304 3.03463860810226e-05
      0.070176918396     0.00068524504903     0.00022387809706     9.7761542625e-06 0.000197735328111361 2.88602537091246e-05
      0.071047306796      0.0006939492943      0.0002544271925     1.4553728034e-05 0.000224785573027019 2.74789944066819e-05
      0.071924246884     0.00070217226995     0.00027433460766     1.5045278639e-05 0.000242692187793038 2.61713960389386e-05
      0.072801166802     0.00071088955868      0.0002729852195     1.4499541991e-05 0.000245389584826349 2.49421988555646e-05
      0.073682480629     0.00071968075089     0.00025785787722     1.3842257576e-05 0.000230860876389617 2.37799715809478e-05
      0.074555022652     0.00072793339475       0.000240579486     1.3446967183e-05 0.000201208736956189  2.2696537018124e-05
      0.075431933784     0.00073649408099     0.00016637946129     1.1184237397e-05 0.000160771722811521 2.16704725449867e-05
      0.076313209758     0.00074559714996     9.5300275892e-05     8.5189387573e-06 0.000115810720322906 2.06983298657546e-05
        0.0771944892     0.00075363283361      6.867740908e-05     7.0072603399e-06 7.32323736868152e-05 1.97812268254315e-05
      0.078071374206     0.00076245321781     3.6632016619e-05     5.2821378659e-06 3.89057707856873e-05 1.89197681335662e-05
       0.07894384588     0.00077106919245     2.3021967803e-05      4.343532116e-06 1.63823132007721e-05 1.81098360891595e-05
      0.079820710718     0.00077921262551     1.3468133092e-05     3.5184201106e-06 6.71718812203076e-06 1.73401274651946e-05
      0.080697560604     0.00078808443737     2.2245499774e-05     4.1865563184e-06 9.00330515511272e-06 1.66119988281924e-05
      0.081574400657     0.00079656569431     2.4208369277e-05     4.1302985426e-06  2.0279827989183e-05 1.59227345184441e-05
      0.082451230771     0.00080512491044     5.7235652434e-05     5.9878376595e-06 3.64912625757013e-05 1.52698873862276e-05
      0.083328050838     0.00081384006398     5.9788481589e-05     6.0819531944e-06 5.33506834746829e-05 1.46511725174056e-05
      0.084204860752     0.00082211262019     7.2997741246e-05     6.6546305754e-06 6.71738432658839e-05 1.40644496739134e-05
      0.085081665632     0.00083087938932     8.8135155096e-05     7.2383178454e-06 7.54824624086627e-05 1.35077755236559e-05
      0.085962849115     0.00083961600471     7.9706106921e-05      6.692427931e-06 7.73261952665771e-05 1.29767183805683e-05
      0.086835233731     0.00084796999644     6.5938970325e-05     6.1083868837e-06 7.32905855194144e-05 1.24773144465803e-05
      0.087707600961     0.00085671411608     6.6912274878e-05     6.1183561122e-06 6.51865633675825e-05  1.2002615491815e-05
      0.088584357408     0.00086498563599       5.82564353e-05     5.6998776564e-06 5.54601654071484e-05  1.1548915232653e-05
      0.089465517328     0.00087356536711     4.3920977921e-05       4.95861459e-06 4.68037473153318e-05 1.11151823425728e-05
      0.090346631345     0.00088227476591     3.2107728506e-05     4.1321866589e-06 4.16257085427176e-05 1.07024704993122e-05
      0.091218940428     0.00089040625657     4.2824634317e-05     4.6790617978e-06 4.14541382023592e-05 1.03133706590616e-05
       0.09209567241     0.00089931476719     3.1711823817e-05     4.0532474086e-06 4.67670064521998e-05 9.94076228404212e-06
      0.092972396898     0.00090800175337     5.1277720685e-05     5.0481406366e-06 5.70286926941656e-05 9.58559954484207e-06
      0.093849058561     0.00091621986952      6.822820106e-05     5.7696284361e-06 7.08015521009953e-05 9.24692644094644e-06
      0.094725777149     0.00092514061593     7.6016815825e-05     5.8925209099e-06 8.60590571546774e-05 8.92381168645723e-06
      0.095602404582     0.00093367040114     9.4681391096e-05     6.5362033678e-06 0.000100547470667695 8.61543730092981e-06
      0.096479093013     0.00094191421309     0.00010273653453     6.7870304795e-06 0.000112185604016588 8.32095160186871e-06
      0.097355717108     0.00095083400682     9.6630388757e-05     6.5469493489e-06 0.000119359948770444 8.03968835354673e-06
      0.098236738141     0.00095915115015     0.00011467310537      7.092056533e-06 0.000121198866629093 7.76953849722422e-06
      0.099108987995     0.00096758036921     0.00010228948945     6.5341357087e-06 0.000117604445169619 7.51382890839705e-06
      0.099985596882     0.00097621335137      0.0001068847254     6.6603304514e-06 0.000109211077431768  7.2680063208974e-06
       0.10086219359     0.00098463800973     9.0812081726e-05     6.1141821749e-06  9.7265307680065e-05 7.03279414757388e-06
       0.10173439628     0.00099337860324     8.1197717047e-05     5.7703577502e-06 8.34305264936199e-05 6.80875506098356e-06
       0.10261535002      0.0010020327787     7.1882384762e-05     5.4229221945e-06 6.91725483827268e-05 6.59206576340109e-06
       0.10348315299      0.0010102827638     5.2587759463e-05     4.5435544323e-06  5.6333430320011e-05 6.38756612683978e-06
       0.10436846689      0.0010193226877     4.1957588996e-05     4.0651454688e-06 4.56194221108386e-05 6.18764874716929e-06
       0.10524500108      0.0010275119373     3.6314975108e-05     3.8042514245e-06 3.80165502947083e-05 5.99793048141933e-06
       0.10612152244       0.001036299283     3.4990761788e-05     3.7175893598e-06 3.35108147407055e-05 5.81600250998746e-06
       0.10699803087      0.0010447742712     2.3933068182e-05     3.1048200193e-06 3.17162062122246e-05 5.64147514835299e-06
       0.10787452627      0.0010529628425     3.2292791476e-05     3.5372064965e-06 3.18922146013392e-05 5.47399056985154e-06
       0.10875100852      0.0010618014204     2.8121155687e-05     3.3027541566e-06 3.31059718396243e-05 5.31321710256007e-06
       0.10961871143      0.0010705438508     2.9163576217e-05     3.1984370331e-06 3.43962367393366e-05 5.16034371919753e-06
       0.11049516721      0.0010786796366     2.5854765273e-05     3.0244135614e-06 3.49918913623721e-05 5.01197820437012e-06
       0.11137597868      0.0010876174547     2.8445279344e-05     3.1475299675e-06 3.43235691616376e-05 4.86872256587743e-06
       0.11225241396      0.0010959608065     2.5789509905e-05     3.0016777236e-06  3.2172332042394e-05 4.73171384826967e-06
         0.113124448      0.0011044900833     2.1783675264e-05     2.7784729619e-06 2.86484713731359e-05 4.60062705598691e-06
       0.11400522721      0.0011132970159     1.9146190679e-05     2.6224934679e-06 2.40438491140583e-05 4.47328487546127e-06
       0.11488161785      0.0011217956454     1.2161666379e-05     2.1558287629e-06 1.89427356147008e-05 4.35138613235616e-06
       0.11575800773      0.0011301640627     1.4800696029e-05     2.3212021887e-06 1.39020623786294e-05 4.23406930989858e-06
       0.11663435743      0.0011386881622     7.6021423197e-06     1.7785451192e-06 9.44900933120024e-06  4.1211379892204e-06
       0.11751070221      0.0011470559409     2.9399182889e-06     1.3142018246e-06 5.97235552061192e-06 4.01238982768678e-06
       0.11838702796      0.0011560475719     3.7497061212e-06     1.4057375658e-06 3.67359927412004e-06 3.90764594175399e-06
       0.11926335713      0.0011642848857     1.7134351399e-06     1.1096978514e-06 2.54930326540436e-06 3.80672057448981e-06
       0.12014404353      0.0011729858762    -3.4259103256e-08     8.8696714753e-07 2.42611529737756e-06 3.70898049687115e-06
       0.12102033055      0.0011818335353     7.1896472254e-07     1.0215017443e-06 3.00561149215652e-06 3.61524256015285e-06
       0.12190097462      0.0011900528909     3.3360923461e-06     1.3481561307e-06 3.93633448536919e-06 3.52439971839438e-06
       0.12277286025      0.0011987091156      2.695664827e-06     1.3106664021e-06  4.8741149790743e-06 3.43765167041878e-06
       0.12364910271      0.0012074651326     3.1187254826e-06     1.3305308508e-06 5.58052663967112e-06  3.3535323099784e-06
        0.1245253301      0.0012154406501     5.7168960522e-06     1.5590662391e-06 5.91482426086415e-06 3.27235142004199e-06
       0.12540154233      0.0012244299843     2.4316228924e-06     1.2370279333e-06 5.86795322641054e-06 3.19399408564156e-06
       0.12627774972      0.0012330289389     2.3260442178e-06     1.2191838033e-06 5.54776025254733e-06  3.1183365604651e-06
       0.12715393127      0.0012411597522     5.3941584519e-06     1.5144930618e-06 5.14172397471666e-06 3.04526911496209e-06
       0.12803009734      0.0012499400347     4.1697546951e-06       1.33499273e-06 4.87211286069554e-06 2.97468973194184e-06
        0.1289062478      0.0012584081434     6.4811185529e-06     1.5374388469e-06 4.94598563768936e-06 2.90649348702944e-06
       0.12978238256      0.0012670578817     6.3554820116e-06     1.5390224581e-06 5.51321391059248e-06 2.84058643439906e-06
        0.1306585015      0.0012757334285     9.3026584575e-06     1.7642049112e-06 6.63671095944885e-06 2.77687616128141e-06
       0.13153020086      0.0012839966122     9.8516214807e-06     1.8130310876e-06 8.27208301183314e-06 2.71557892667167e-06
       0.13240630373      0.0012927494736      1.377023955e-05     2.0380219867e-06 1.03122906755141e-05 2.65599378842357e-06
       0.13328677072      0.0013011341356      1.415720526e-05     2.0423164012e-06 1.25695390213891e-05 2.59807147858528e-06
       0.13416719928      0.0013095963118     1.7250266337e-05     2.2000325559e-06 1.48065295254495e-05  2.5420395808517e-06
       0.13503885527      0.0013184302045     2.1510943897e-05     2.4037523493e-06 1.67816992293643e-05 2.48835529913675e-06
