#      z (A) rho (1e-6/A2) irho (1e-6/A2)
-52.89927131  20.08490362  -0.44817442
-52.79927131  20.08518348  -0.44798992
-52.69927131  20.08546814  -0.44780225
-52.59927131  20.08575766  -0.44761138
-52.49927131  20.08605212  -0.44741725
-52.39927131  20.08635159  -0.44721981
-52.29927131  20.08665616  -0.44701902
-52.19927131  20.08696589  -0.44681482
-52.09927131  20.08728086  -0.44660717
-51.99927131  20.08760116  -0.44639600
-51.89927131  20.08792686  -0.44618128
-51.79927131  20.08825804  -0.44596294
-51.69927131  20.08859478  -0.44574093
-51.59927131  20.08893717  -0.44551520
-51.49927131  20.08928529  -0.44528570
-51.39927131  20.08963923  -0.44505236
-51.29927131  20.08999906  -0.44481513
-51.19927131  20.09036488  -0.44457395
-51.09927131  20.09073677  -0.44432878
-50.99927131  20.09111482  -0.44407953
-50.89927131  20.09149913  -0.44382617
-50.79927131  20.09188978  -0.44356862
-50.69927131  20.09228687  -0.44330684
-50.59927131  20.09269048  -0.44304074
-50.49927131  20.09310072  -0.44277029
-50.39927131  20.09351767  -0.44249540
-50.29927131  20.09394143  -0.44221602
-50.19927131  20.09437211  -0.44193209
-50.09927131  20.09480980  -0.44164353
-49.99927131  20.09525459  -0.44135029
-49.89927131  20.09570660  -0.44105229
-49.79927131  20.09616592  -0.44074948
-49.69927131  20.09663265  -0.44044177
-49.59927131  20.09710691  -0.44012910
-49.49927131  20.09758879  -0.43981141
-49.39927131  20.09807841  -0.43948862
-49.29927131  20.09857586  -0.43916066
-49.19927131  20.09908127  -0.43882746
-49.09927131  20.09959473  -0.43848895
-48.99927131  20.10011637  -0.43814504
-48.89927131  20.10064630  -0.43779568
-48.79927131  20.10118462  -0.43744077
-48.69927131  20.10173146  -0.43708025
-48.59927131  20.10228693  -0.43671405
-48.49927131  20.10285116  -0.43634207
-48.39927131  20.10342425  -0.43596424
-48.29927131  20.10400633  -0.43558049
-48.19927131  20.10459753  -0.43519073
-48.09927131  20.10519796  -0.43479488
-47.99927131  20.10580776  -0.43439286
-47.89927131  20.10642704  -0.43398458
-47.79927131  20.10705593  -0.43356997
-47.69927131  20.10769457  -0.43314893
-47.59927131  20.10834308  -0.43272138
-47.49927131  20.10900159  -0.43228724
-47.39927131  20.10967024  -0.43184642
-47.29927131  20.11034916  -0.43139882
-47.19927131  20.11103849  -0.43094437
-47.09927131  20.11173837  -0.43048296
-46.99927131  20.11244892  -0.43001451
-46.89927131  20.11317030  -0.42953892
-46.79927131  20.11390264  -0.42905610
-46.69927131  20.11464609  -0.42856597
-46.59927131  20.11540079  -0.42806842
-46.49927131  20.11616688  -0.42756335
-46.39927131  20.11694452  -0.42705067
-46.29927131  20.11773385  -0.42653029
-46.19927131  20.11853502  -0.42600210
-46.09927131  20.11934818  -0.42546600
-45.99927131  20.12017349  -0.42492189
-45.89927131  20.12101110  -0.42436968
-45.79927131  20.12186117  -0.42380925
-45.69927131  20.12272385  -0.42324051
-45.59927131  20.12359931  -0.42266334
-45.49927131  20.12448769  -0.42207765
-45.39927131  20.12538918  -0.42148332
-45.29927131  20.12630392  -0.42088026
-45.19927131  20.12723209  -0.42026834
-45.09927131  20.12817385  -0.41964746
-44.99927131  20.12912937  -0.41901751
-44.89927131  20.13009881  -0.41837838
-44.79927131  20.13108236  -0.41772995
-44.69927131  20.13208018  -0.41707211
-44.59927131  20.13309246  -0.41640475
-44.49927131  20.13411935  -0.41572774
-44.39927131  20.13516105  -0.41504098
-44.29927131  20.13621773  -0.41434434
-44.19927131  20.13728957  -0.41363770
-44.09927131  20.13837676  -0.41292094
-43.99927131  20.13947948  -0.41219395
-43.89927131  20.14059791  -0.41145659
-43.79927131  20.14173225  -0.41070875
-43.69927131  20.14288268  -0.40995031
-43.59927131  20.14404939  -0.40918112
-43.49927131  20.14523257  -0.40840108
-43.39927131  20.14643243  -0.40761004
-43.29927131  20.14764915  -0.40680789
-43.19927131  20.14888293  -0.40599449
-43.09927131  20.15013398  -0.40516971
-42.99927131  20.15140248  -0.40433341
-42.89927131  20.15268866  -0.40348547
-42.79927131  20.15399270  -0.40262575
-42.69927131  20.15531481  -0.40175412
-42.59927131  20.15665521  -0.40087043
-42.49927131  20.15801409  -0.39997455
-42.39927131  20.15939168  -0.39906634
-42.29927131  20.16078819  -0.39814566
-42.19927131  20.16220382  -0.39721237
-42.09927131  20.16363879  -0.39626633
-41.99927131  20.16509333  -0.39530739
-41.89927131  20.16656764  -0.39433541
-41.79927131  20.16806196  -0.39335024
-41.69927131  20.16957651  -0.39235174
-41.59927131  20.17111150  -0.39133976
-41.49927131  20.17266717  -0.39031415
-41.39927131  20.17424374  -0.38927476
-41.29927131  20.17584144  -0.38822143
-41.19927131  20.17746050  -0.38715403
-41.09927131  20.17910116  -0.38607238
-40.99927131  20.18076366  -0.38497634
-40.89927131  20.18244821  -0.38386575
-40.79927131  20.18415508  -0.38274046
-40.69927131  20.18588449  -0.38160031
-40.59927131  20.18763668  -0.38044513
-40.49927131  20.18941191  -0.37927477
-40.39927131  20.19121041  -0.37808906
-40.29927131  20.19303242  -0.37688785
-40.19927131  20.19487821  -0.37567097
-40.09927131  20.19674802  -0.37443826
-39.99927131  20.19864210  -0.37318954
-39.89927131  20.20056070  -0.37192465
-39.79927131  20.20250408  -0.37064343
-39.69927131  20.20447249  -0.36934571
-39.59927131  20.20646620  -0.36803130
-39.49927131  20.20848547  -0.36670006
-39.39927131  20.21053055  -0.36535179
-39.29927131  20.21260171  -0.36398632
-39.19927131  20.21469921  -0.36260349
-39.09927131  20.21682332  -0.36120312
-38.99927131  20.21897432  -0.35978502
-38.89927131  20.22115246  -0.35834903
-38.79927131  20.22335803  -0.35689496
-38.69927131  20.22559128  -0.35542263
-38.59927131  20.22785251  -0.35393185
-38.49927131  20.23014199  -0.35242246
-38.39927131  20.23245999  -0.35089426
-38.29927131  20.23480680  -0.34934707
-38.19927131  20.23718269  -0.34778071
-38.09927131  20.23958795  -0.34619498
-37.99927131  20.24202286  -0.34458970
-37.89927131  20.24448772  -0.34296469
-37.79927131  20.24698280  -0.34131974
-37.69927131  20.24950840  -0.33965468
-37.59927131  20.25206481  -0.33796930
-37.49927131  20.25465233  -0.33626342
-37.39927131  20.25727123  -0.33453684
-37.29927131  20.25992183  -0.33278937
-37.19927131  20.26260442  -0.33102081
-37.09927131  20.26531929  -0.32923096
-36.99927131  20.26806675  -0.32741963
-36.89927131  20.27084710  -0.32558661
-36.79927131  20.27366065  -0.32373172
-36.69927131  20.27650769  -0.32185474
-36.59927131  20.27938853  -0.31995547
-36.49927131  20.28230349  -0.31803371
-36.39927131  20.28525286  -0.31608927
-36.29927131  20.28823697  -0.31412192
-36.19927131  20.29125611  -0.31213147
-36.09927131  20.29431062  -0.31011772
-35.99927131  20.29740079  -0.30808045
-35.89927131  20.30052695  -0.30601945
-35.79927131  20.30368941  -0.30393452
-35.69927131  20.30688849  -0.30182544
-35.59927131  20.31012452  -0.29969201
-35.49927131  20.31339781  -0.29753402
-35.39927131  20.31670869  -0.29535124
-35.29927131  20.32005747  -0.29314347
-35.19927131  20.32344449  -0.29091049
-35.09927131  20.32687008  -0.28865210
-34.99927131  20.33033455  -0.28636806
-34.89927131  20.33383824  -0.28405816
-34.79927131  20.33738148  -0.28172220
-34.69927131  20.34096459  -0.27935994
-34.59927131  20.34458792  -0.27697117
-34.49927131  20.34825179  -0.27455567
-34.39927131  20.35195655  -0.27211322
-34.29927131  20.35570251  -0.26964360
-34.19927131  20.35949003  -0.26714659
-34.09927131  20.36331944  -0.26462196
-33.99927131  20.36719108  -0.26206948
-33.89927131  20.37110528  -0.25948895
-33.79927131  20.37506240  -0.25688013
-33.69927131  20.37906276  -0.25424279
-33.59927131  20.38310672  -0.25157671
-33.49927131  20.38719461  -0.24888167
-33.39927131  20.39132678  -0.24615743
-33.29927131  20.39550359  -0.24340377
-33.19927131  20.39972536  -0.24062046
-33.09927131  20.40399245  -0.23780728
-32.99927131  20.40830521  -0.23496398
-32.89927131  20.41266399  -0.23209035
-32.79927131  20.41706913  -0.22918615
-32.69927131  20.42152099  -0.22625116
-32.59927131  20.42601991  -0.22328513
-32.49927131  20.43056625  -0.22028785
-32.39927131  20.43516036  -0.21725907
-32.29927131  20.43980259  -0.21419856
-32.19927131  20.44449330  -0.21110610
-32.09927131  20.44923284  -0.20798144
-31.99927131  20.45402155  -0.20482436
-31.89927131  20.45885981  -0.20163462
-31.79927131  20.46374796  -0.19841199
-31.69927131  20.46868636  -0.19515623
-31.59927131  20.47367536  -0.19186710
-31.49927131  20.47871533  -0.18854438
-31.39927131  20.48380661  -0.18518783
-31.29927131  20.48894957  -0.18179721
-31.19927131  20.49414456  -0.17837228
-31.09927131  20.49939195  -0.17491282
-30.99927131  20.50469208  -0.17141858
-30.89927131  20.51004531  -0.16788932
-30.79927131  20.51545201  -0.16432482
-30.69927131  20.52091254  -0.16072484
-30.59927131  20.52642724  -0.15708913
-30.49927131  20.53199649  -0.15341747
-30.39927131  20.53762063  -0.14970962
-30.29927131  20.54330004  -0.14596533
-30.19927131  20.54903505  -0.14218438
-30.09927131  20.55482604  -0.13836653
-29.99927131  20.56067336  -0.13451154
-29.89927131  20.56657738  -0.13061917
-29.79927131  20.57253843  -0.12668920
-29.69927131  20.57855690  -0.12272138
-29.59927131  20.58463313  -0.11871547
-29.49927131  20.59076748  -0.11467125
-29.39927131  20.59696030  -0.11058848
-29.29927131  20.60321196  -0.10646692
-29.19927131  20.60952281  -0.10230634
-29.09927131  20.61589320  -0.09810651
-28.99927131  20.62232349  -0.09386718
-28.89927131  20.62881404  -0.08958813
-28.79927131  20.63536519  -0.08526912
-28.69927131  20.64197731  -0.08090992
-28.59927131  20.64865073  -0.07651030
-28.49927131  20.65538583  -0.07207002
-28.39927131  20.66218294  -0.06758886
-28.29927131  20.66904242  -0.06306658
-28.19927131  20.67596462  -0.05850295
-28.09927131  20.68294988  -0.05389774
-27.99927131  20.68999855  -0.04925073
-27.89927131  20.69711099  -0.04456168
-27.79927131  20.70428754  -0.03983037
-27.69927131  20.71152853  -0.03505656
-27.59927131  20.71883432  -0.03024004
-27.49927131  20.72620525  -0.02538058
-27.39927131  20.73364166  -0.02047794
-27.29927131  20.74114389  -0.01553191
-27.19927131  20.74871228  -0.01054227
-27.09927131  20.75634716  -0.00550878
-26.99927131  20.76404888  -0.00043124
-26.89927131  20.77181777   0.00469060
-26.79927131  20.77965416   0.00985693
-26.69927131  20.78755838   0.01506798
-26.59927131  20.79553078   0.02032398
-26.49927131  20.80357166   0.02562513
-26.39927131  20.81168137   0.03097166
-26.29927131  20.81986023   0.03636377
-26.19927131  20.82810856   0.04180168
-26.09927131  20.83642669   0.04728561
-25.99927131  20.84481493   0.05281577
-25.89927131  20.85327361   0.05839236
-25.79927131  20.86180304   0.06401560
-25.69927131  20.87040354   0.06968569
-25.59927131  20.87907542   0.07540284
-25.49927131  20.88781899   0.08116725
-25.39927131  20.89663457   0.08697913
-25.29927131  20.90552245   0.09283869
-25.19927131  20.91448294   0.09874612
-25.09927131  20.92351636   0.10470161
-24.99927131  20.93262298   0.11070538
-24.89927131  20.94180313   0.11675762
-24.79927131  20.95105708   0.12285851
-24.69927131  20.96038514   0.12900826
-24.59927131  20.96978759   0.13520706
-24.49927131  20.97926472   0.14145509
-24.39927131  20.98881683   0.14775255
-24.29927131  20.99844419   0.15409963
-24.19927131  21.00814708   0.16049649
-24.09927131  21.01792578   0.16694334
-23.99927131  21.02778057   0.17344036
-23.89927131  21.03771172   0.17998771
-23.79927131  21.04771950   0.18658559
-23.69927131  21.05780418   0.19323416
-23.59927131  21.06796601   0.19993360
-23.49927131  21.07820527   0.20668408
-23.39927131  21.08852221   0.21348577
-23.29927131  21.09891708   0.22033885
-23.19927131  21.10939014   0.22724347
-23.09927131  21.11994163   0.23419980
-22.99927131  21.13057181   0.24120800
-22.89927131  21.14128091   0.24826824
-22.79927131  21.15206916   0.25538067
-22.69927131  21.16293682   0.26254544
-22.59927131  21.17388411   0.26976270
-22.49927131  21.18491126   0.27703262
-22.39927131  21.19601849   0.28435533
-22.29927131  21.20720602   0.29173099
-22.19927131  21.21847408   0.29915974
-22.09927131  21.22982288   0.30664171
-21.99927131  21.24125263   0.31417705
-21.89927131  21.25276353   0.32176590
-21.79927131  21.26435580   0.32940838
-21.69927131  21.27602962   0.33710464
-21.59927131  21.28778520   0.34485479
-21.49927131  21.29962273   0.35265897
-21.39927131  21.31154239   0.36051730
-21.29927131  21.32354437   0.36842990
-21.19927131  21.33562885   0.37639689
-21.09927131  21.34779601   0.38441839
-20.99927131  21.36004601   0.39249450
-20.89927131  21.37237902   0.40062535
-20.79927131  21.38479521   0.40881103
-20.69927131  21.39729474   0.41705165
-20.59927131  21.40987776   0.42534731
-20.49927131  21.42254442   0.43369812
-20.39927131  21.43529486   0.44210416
-20.29927131  21.44812923   0.45056554
-20.19927131  21.46104767   0.45908233
-20.09927131  21.47405031   0.46765464
-19.99927131  21.48713727   0.47628254
-19.89927131  21.50030868   0.48496612
-19.79927131  21.51356466   0.49370544
-19.69927131  21.52690532   0.50250060
-19.59927131  21.54033076   0.51135166
-19.49927131  21.55384111   0.52025868
-19.39927131  21.56743644   0.52922174
-19.29927131  21.58111687   0.53824090
-19.19927131  21.59488247   0.54731621
-19.09927131  21.60873334   0.55644774
-18.99927131  21.62266955   0.56563553
-18.89927131  21.63669119   0.57487963
-18.79927131  21.65079830   0.58418009
-18.69927131  21.66499097   0.59353696
-18.59927131  21.67926926   0.60295027
-18.49927131  21.69363321   0.61242006
-18.39927131  21.70808288   0.62194636
-18.29927131  21.72261830   0.63152919
-18.19927131  21.73723953   0.64116860
-18.09927131  21.75194659   0.65086459
-17.99927131  21.76673951   0.66061718
-17.89927131  21.78161831   0.67042640
-17.79927131  21.79658301   0.68029224
-17.69927131  21.81163363   0.69021473
-17.59927131  21.82677016   0.70019386
-17.49927131  21.84199262   0.71022964
-17.39927131  21.85730099   0.72032206
-17.29927131  21.87269526   0.73047111
-17.19927131  21.88817542   0.74067679
-17.09927131  21.90374145   0.75093908
-16.99927131  21.91939333   0.76125796
-16.89927131  21.93513100   0.77163341
-16.79927131  21.95095445   0.78206541
-16.69927131  21.96686362   0.79255392
-16.59927131  21.98285847   0.80309891
-16.49927131  21.99893894   0.81370036
-16.39927131  22.01510496   0.82435821
-16.29927131  22.03135648   0.83507242
-16.19927131  22.04769341   0.84584294
-16.09927131  22.06411568   0.85666972
-15.99927131  22.08062320   0.86755271
-15.89927131  22.09721588   0.87849184
-15.79927131  22.11389363   0.88948706
-15.69927131  22.13065634   0.90053829
-15.59927131  22.14750390   0.91164545
-15.49927131  22.16443619   0.92280848
-15.39927131  22.18145311   0.93402730
-15.29927131  22.19855451   0.94530182
-15.19927131  22.21574026   0.95663195
-15.09927131  22.23301024   0.96801761
-14.99927131  22.25036428   0.97945869
-14.89927131  22.26780224   0.99095509
-14.79927131  22.28532397   1.00250672
-14.69927131  22.30292929   1.01411346
-14.59927131  22.32061804   1.02577520
-14.49927131  22.33839004   1.03749183
-14.39927131  22.35624511   1.04926322
-14.29927131  22.37418305   1.06108925
-14.19927131  22.39220369   1.07296980
-14.09927131  22.41030681   1.08490472
-13.99927131  22.42849220   1.09689389
-13.89927131  22.44675966   1.10893716
-13.79927131  22.46510896   1.12103439
-13.69927131  22.48353988   1.13318543
-13.59927131  22.50205218   1.14539012
-13.49927131  22.52064563   1.15764830
-13.39927131  22.53931998   1.16995983
-13.29927131  22.55807498   1.18232452
-13.19927131  22.57691038   1.19474222
-13.09927131  22.59582590   1.20721274
-12.99927131  22.61482128   1.21973591
-12.89927131  22.63389624   1.23231155
-12.79927131  22.65305051   1.24493947
-12.69927131  22.67228378   1.25761948
-12.59927131  22.69159577   1.27035138
-12.49927131  22.71098618   1.28313498
-12.39927131  22.73045469   1.29597007
-12.29927131  22.75000099   1.30885645
-12.19927131  22.76962476   1.32179391
-12.09927131  22.78932568   1.33478223
-11.99927131  22.80910342   1.34782118
-11.89927131  22.82895762   1.36091055
-11.79927131  22.84888796   1.37405012
-11.69927131  22.86889407   1.38723964
-11.59927131  22.88897560   1.40047888
-11.49927131  22.90913219   1.41376760
-11.39927131  22.92936346   1.42710557
-11.29927131  22.94966904   1.44049252
-11.19927131  22.97004854   1.45392821
-11.09927131  22.99050159   1.46741238
-10.99927131  23.01102777   1.48094477
-10.89927131  23.03162670   1.49452512
-10.79927131  23.05229796   1.50815315
-10.69927131  23.07304114   1.52182861
-10.59927131  23.09385582   1.53555120
-10.49927131  23.11474159   1.54932065
-10.39927131  23.13569799   1.56313667
-10.29927131  23.15672461   1.57699899
-10.19927131  23.17782099   1.59090729
-10.09927131  23.19898668   1.60486130
 -9.99927131  23.22022124   1.61886070
 -9.89927131  23.24152420   1.63290520
 -9.79927131  23.26289508   1.64699448
 -9.69927131  23.28433343   1.66112824
 -9.59927131  23.30583876   1.67530615
 -9.49927131  23.32741058   1.68952791
 -9.39927131  23.34904841   1.70379318
 -9.29927131  23.37075175   1.71810164
 -9.19927131  23.39252010   1.73245296
 -9.09927131  23.41435295   1.74684680
 -8.99927131  23.43624979   1.76128282
 -8.89927131  23.45821009   1.77576069
 -8.79927131  23.48023334   1.79028006
 -8.69927131  23.50231901   1.80484058
 -8.59927131  23.52446655   1.81944189
 -8.49927131  23.54667543   1.83408364
 -8.39927131  23.56894510   1.84876547
 -8.29927131  23.59127501   1.86348701
 -8.19927131  23.61366461   1.87824790
 -8.09927131  23.63611332   1.89304777
 -7.99927131  23.65862059   1.90788624
 -7.89927131  23.68118584   1.92276293
 -7.79927131  23.70380849   1.93767746
 -7.69927131  23.72648795   1.95262946
 -7.59927131  23.74922365   1.96761853
 -7.49927131  23.77201498   1.98264427
 -7.39927131  23.79486134   1.99770630
 -7.29927131  23.81776215   2.01280421
 -7.19927131  23.84071677   2.02793761
 -7.09927131  23.86372461   2.04310610
 -6.99927131  23.88678504   2.05830925
 -6.89927131  23.90989744   2.07354667
 -6.79927131  23.93306118   2.08881793
 -6.69927131  23.95627563   2.10412263
 -6.59927131  23.97954015   2.11946034
 -6.49927131  24.00285411   2.13483063
 -6.39927131  24.02621685   2.15023309
 -6.29927131  24.04962772   2.16566728
 -6.19927131  24.07308606   2.18113278
 -6.09927131  24.09659123   2.19662913
 -5.99927131  24.12014255   2.21215592
 -5.89927131  24.14373936   2.22771269
 -5.79927131  24.16738098   2.24329901
 -5.69927131  24.19106673   2.25891443
 -5.59927131  24.21479594   2.27455849
 -5.49927131  24.23856792   2.29023076
 -5.39927131  24.26238199   2.30593076
 -5.29927131  24.28623744   2.32165806
 -5.19927131  24.31013359   2.33741218
 -5.09927131  24.33406973   2.35319266
 -4.99927131  24.35804515   2.36899905
 -4.89927131  24.38205916   2.38483087
 -4.79927131  24.40611103   2.40068766
 -4.69927131  24.43020006   2.41656895
 -4.59927131  24.45432553   2.43247425
 -4.49927131  24.47848670   2.44840310
 -4.39927131  24.50268287   2.46435502
 -4.29927131  24.52691329   2.48032952
 -4.19927131  24.55117724   2.49632612
 -4.09927131  24.57547399   2.51234435
 -3.99927131  24.59980278   2.52838371
 -3.89927131  24.62416289   2.54444371
 -3.79927131  24.64855357   2.56052386
 -3.69927131  24.67297407   2.57662368
 -3.59927131  24.69742365   2.59274266
 -3.49927131  24.72190154   2.60888031
 -3.39927131  24.74640699   2.62503613
 -3.29927131  24.77093925   2.64120963
 -3.19927131  24.79549756   2.65740029
 -3.09927131  24.82008115   2.67360763
 -2.99927131  24.84468925   2.68983112
 -2.89927131  24.86932111   2.70607028
 -2.79927131  24.89397594   2.72232458
 -2.69927131  24.91865298   2.73859353
 -2.59927131  24.94335145   2.75487660
 -2.49927131  24.96807058   2.77117329
 -2.39927131  24.99280959   2.78748309
 -2.29927131  25.01756769   2.80380548
 -2.19927131  25.04234411   2.82013994
 -2.09927131  25.06713806   2.83648596
 -1.99927131  25.09194875   2.85284302
 -1.89927131  25.11677541   2.86921060
