#      z (A) rho (1e-6/A2) irho (1e-6/A2)
-47.11650105  20.08737960   0.46571013
-47.01650105  20.08774640   0.46587285
-46.91650105  20.08812025   0.46603870
-46.81650105  20.08850128   0.46620774
-46.71650105  20.08888962   0.46638002
-46.61650105  20.08928537   0.46655559
-46.51650105  20.08968868   0.46673451
-46.41650105  20.09009967   0.46691683
-46.31650105  20.09051846   0.46710262
-46.21650105  20.09094520   0.46729194
-46.11650105  20.09138000   0.46748483
-46.01650105  20.09182301   0.46768136
-45.91650105  20.09227436   0.46788159
-45.81650105  20.09273419   0.46808559
-45.71650105  20.09320264   0.46829341
-45.61650105  20.09367986   0.46850512
-45.51650105  20.09416598   0.46872078
-45.41650105  20.09466116   0.46894045
-45.31650105  20.09516553   0.46916421
-45.21650105  20.09567926   0.46939212
-45.11650105  20.09620250   0.46962424
-45.01650105  20.09673539   0.46986065
-44.91650105  20.09727810   0.47010141
-44.81650105  20.09783078   0.47034659
-44.71650105  20.09839359   0.47059628
-44.61650105  20.09896670   0.47085052
-44.51650105  20.09955027   0.47110941
-44.41650105  20.10014447   0.47137302
-44.31650105  20.10074947   0.47164141
-44.21650105  20.10136543   0.47191467
-44.11650105  20.10199253   0.47219288
-44.01650105  20.10263095   0.47247610
-43.91650105  20.10328087   0.47276442
-43.81650105  20.10394246   0.47305792
-43.71650105  20.10461591   0.47335669
-43.61650105  20.10530140   0.47366079
-43.51650105  20.10599911   0.47397032
-43.41650105  20.10670925   0.47428536
-43.31650105  20.10743200   0.47460599
-43.21650105  20.10816755   0.47493230
-43.11650105  20.10891610   0.47526439
-43.01650105  20.10967785   0.47560232
-42.91650105  20.11045301   0.47594620
-42.81650105  20.11124176   0.47629612
-42.71650105  20.11204433   0.47665217
-42.61650105  20.11286092   0.47701443
-42.51650105  20.11369174   0.47738301
-42.41650105  20.11453700   0.47775799
-42.31650105  20.11539693   0.47813948
-42.21650105  20.11627173   0.47852757
-42.11650105  20.11716164   0.47892236
-42.01650105  20.11806687   0.47932395
-41.91650105  20.11898765   0.47973244
-41.81650105  20.11992421   0.48014792
-41.71650105  20.12087679   0.48057052
-41.61650105  20.12184561   0.48100032
-41.51650105  20.12283092   0.48143743
-41.41650105  20.12383295   0.48188196
-41.31650105  20.12485195   0.48233402
-41.21650105  20.12588816   0.48279372
-41.11650105  20.12694183   0.48326116
-41.01650105  20.12801321   0.48373645
-40.91650105  20.12910256   0.48421972
-40.81650105  20.13021013   0.48471107
-40.71650105  20.13133617   0.48521062
-40.61650105  20.13248096   0.48571849
-40.51650105  20.13364476   0.48623478
-40.41650105  20.13482783   0.48675963
-40.31650105  20.13603044   0.48729314
-40.21650105  20.13725287   0.48783545
-40.11650105  20.13849540   0.48838668
-40.01650105  20.13975830   0.48894694
-39.91650105  20.14104185   0.48951636
-39.81650105  20.14234635   0.49009508
-39.71650105  20.14367207   0.49068321
-39.61650105  20.14501931   0.49128089
-39.51650105  20.14638837   0.49188824
-39.41650105  20.14777953   0.49250540
-39.31650105  20.14919310   0.49313251
-39.21650105  20.15062939   0.49376969
-39.11650105  20.15208869   0.49441708
-39.01650105  20.15357132   0.49507482
-38.91650105  20.15507759   0.49574305
-38.81650105  20.15660781   0.49642190
-38.71650105  20.15816230   0.49711152
-38.61650105  20.15974138   0.49781205
-38.51650105  20.16134538   0.49852363
-38.41650105  20.16297462   0.49924642
-38.31650105  20.16462944   0.49998054
-38.21650105  20.16631016   0.50072616
-38.11650105  20.16801712   0.50148343
-38.01650105  20.16975067   0.50225248
-37.91650105  20.17151114   0.50303348
-37.81650105  20.17329888   0.50382658
-37.71650105  20.17511425   0.50463193
-37.61650105  20.17695758   0.50544969
-37.51650105  20.17882924   0.50628002
-37.41650105  20.18072958   0.50712307
-37.31650105  20.18265897   0.50797900
-37.21650105  20.18461778   0.50884799
-37.11650105  20.18660635   0.50973018
-37.01650105  20.18862508   0.51062575
-36.91650105  20.19067434   0.51153487
-36.81650105  20.19275449   0.51245769
-36.71650105  20.19486592   0.51339438
-36.61650105  20.19700902   0.51434513
-36.51650105  20.19918417   0.51531009
-36.41650105  20.20139176   0.51628945
-36.31650105  20.20363218   0.51728337
-36.21650105  20.20590583   0.51829203
-36.11650105  20.20821312   0.51931561
-36.01650105  20.21055443   0.52035429
-35.91650105  20.21293018   0.52140825
-35.81650105  20.21534078   0.52247766
-35.71650105  20.21778664   0.52356272
-35.61650105  20.22026817   0.52466360
-35.51650105  20.22278579   0.52578050
-35.41650105  20.22533992   0.52691359
-35.31650105  20.22793099   0.52806307
-35.21650105  20.23055943   0.52922913
-35.11650105  20.23322566   0.53041195
-35.01650105  20.23593012   0.53161173
-34.91650105  20.23867325   0.53282867
-34.81650105  20.24145548   0.53406295
-34.71650105  20.24427727   0.53531478
-34.61650105  20.24713905   0.53658436
-34.51650105  20.25004127   0.53787188
-34.41650105  20.25298440   0.53917754
-34.31650105  20.25596887   0.54050154
-34.21650105  20.25899516   0.54184410
-34.11650105  20.26206372   0.54320540
-34.01650105  20.26517501   0.54458567
-33.91650105  20.26832951   0.54598510
-33.81650105  20.27152768   0.54740391
-33.71650105  20.27477000   0.54884230
-33.61650105  20.27805695   0.55030049
-33.51650105  20.28138899   0.55177869
-33.41650105  20.28476663   0.55327712
-33.31650105  20.28819033   0.55479598
-33.21650105  20.29166059   0.55633549
-33.11650105  20.29517789   0.55789587
-33.01650105  20.29874274   0.55947735
-32.91650105  20.30235562   0.56108014
-32.81650105  20.30601704   0.56270446
-32.71650105  20.30972750   0.56435053
-32.61650105  20.31348750   0.56601858
-32.51650105  20.31729755   0.56770884
-32.41650105  20.32115816   0.56942152
-32.31650105  20.32506983   0.57115686
-32.21650105  20.32903310   0.57291509
-32.11650105  20.33304846   0.57469643
-32.01650105  20.33711646   0.57650112
-31.91650105  20.34123759   0.57832938
-31.81650105  20.34541240   0.58018146
-31.71650105  20.34964141   0.58205757
-31.61650105  20.35392514   0.58395797
-31.51650105  20.35826414   0.58588288
-31.41650105  20.36265893   0.58783255
-31.31650105  20.36711005   0.58980720
-31.21650105  20.37161805   0.59180709
-31.11650105  20.37618345   0.59383245
-31.01650105  20.38080682   0.59588352
-30.91650105  20.38548869   0.59796054
-30.81650105  20.39022961   0.60006376
-30.71650105  20.39503013   0.60219342
-30.61650105  20.39989081   0.60434976
-30.51650105  20.40481219   0.60653304
-30.41650105  20.40979484   0.60874350
-30.31650105  20.41483931   0.61098138
-30.21650105  20.41994616   0.61324694
-30.11650105  20.42511596   0.61554042
-30.01650105  20.43034926   0.61786207
-29.91650105  20.43564664   0.62021215
-29.81650105  20.44100866   0.62259091
-29.71650105  20.44643588   0.62499860
-29.61650105  20.45192889   0.62743546
-29.51650105  20.45748825   0.62990177
-29.41650105  20.46311453   0.63239776
-29.31650105  20.46880831   0.63492370
-29.21650105  20.47457017   0.63747983
-29.11650105  20.48040068   0.64006643
-29.01650105  20.48630042   0.64268374
-28.91650105  20.49226997   0.64533202
-28.81650105  20.49830992   0.64801152
-28.71650105  20.50442084   0.65072252
-28.61650105  20.51060332   0.65346526
-28.51650105  20.51685795   0.65624000
-28.41650105  20.52318530   0.65904701
-28.31650105  20.52958597   0.66188654
-28.21650105  20.53606054   0.66475886
-28.11650105  20.54260960   0.66766423
-28.01650105  20.54923373   0.67060290
-27.91650105  20.55593354   0.67357514
-27.81650105  20.56270960   0.67658121
-27.71650105  20.56956251   0.67962137
-27.61650105  20.57649285   0.68269589
-27.51650105  20.58350123   0.68580502
-27.41650105  20.59058822   0.68894903
-27.31650105  20.59775442   0.69212818
-27.21650105  20.60500043   0.69534273
-27.11650105  20.61232683   0.69859295
-27.01650105  20.61973422   0.70187909
-26.91650105  20.62722318   0.70520143
-26.81650105  20.63479431   0.70856022
-26.71650105  20.64244820   0.71195572
-26.61650105  20.65018545   0.71538820
-26.51650105  20.65800663   0.71885792
-26.41650105  20.66591235   0.72236514
-26.31650105  20.67390319   0.72591013
-26.21650105  20.68197974   0.72949313
-26.11650105  20.69014258   0.73311442
-26.01650105  20.69839232   0.73677426
-25.91650105  20.70672953   0.74047290
-25.81650105  20.71515479   0.74421061
-25.71650105  20.72366871   0.74798765
-25.61650105  20.73227184   0.75180427
-25.51650105  20.74096480   0.75566073
-25.41650105  20.74974814   0.75955729
-25.31650105  20.75862245   0.76349421
-25.21650105  20.76758832   0.76747175
-25.11650105  20.77664632   0.77149015
-25.01650105  20.78579701   0.77554969
-24.91650105  20.79504099   0.77965060
-24.81650105  20.80437882   0.78379315
-24.71650105  20.81381107   0.78797759
-24.61650105  20.82333831   0.79220416
-24.51650105  20.83296110   0.79647313
-24.41650105  20.84268001   0.80078474
-24.31650105  20.85249561   0.80513925
-24.21650105  20.86240845   0.80953689
-24.11650105  20.87241909   0.81397792
-24.01650105  20.88252808   0.81846258
-23.91650105  20.89273598   0.82299112
-23.81650105  20.90304334   0.82756378
-23.71650105  20.91345070   0.83218081
-23.61650105  20.92395861   0.83684244
-23.51650105  20.93456761   0.84154892
-23.41650105  20.94527824   0.84630049
-23.31650105  20.95609103   0.85109738
-23.21650105  20.96700652   0.85593983
-23.11650105  20.97802523   0.86082807
-23.01650105  20.98914769   0.86576233
-22.91650105  21.00037442   0.87074286
-22.81650105  21.01170594   0.87576987
-22.71650105  21.02314277   0.88084360
-22.61650105  21.03468541   0.88596427
-22.51650105  21.04633436   0.89113211
-22.41650105  21.05809015   0.89634734
-22.31650105  21.06995325   0.90161018
-22.21650105  21.08192417   0.90692085
-22.11650105  21.09400340   0.91227957
-22.01650105  21.10619142   0.91768655
-21.91650105  21.11848871   0.92314201
-21.81650105  21.13089576   0.92864616
-21.71650105  21.14341302   0.93419920
-21.61650105  21.15604098   0.93980136
-21.51650105  21.16878009   0.94545282
-21.41650105  21.18163081   0.95115379
-21.31650105  21.19459359   0.95690448
-21.21650105  21.20766887   0.96270509
-21.11650105  21.22085711   0.96855580
-21.01650105  21.23415874   0.97445681
-20.91650105  21.24757419   0.98040832
-20.81650105  21.26110387   0.98641051
-20.71650105  21.27474823   0.99246356
-20.61650105  21.28850766   0.99856767
-20.51650105  21.30238257   1.00472301
-20.41650105  21.31637337   1.01092976
-20.31650105  21.33048046   1.01718810
-20.21650105  21.34470421   1.02349820
-20.11650105  21.35904503   1.02986023
-20.01650105  21.37350328   1.03627436
-19.91650105  21.38807933   1.04274074
-19.81650105  21.40277355   1.04925956
-19.71650105  21.41758630   1.05583095
-19.61650105  21.43251793   1.06245508
-19.51650105  21.44756877   1.06913210
-19.41650105  21.46273918   1.07586216
-19.31650105  21.47802947   1.08264540
-19.21650105  21.49343997   1.08948198
-19.11650105  21.50897099   1.09637202
-19.01650105  21.52462285   1.10331567
-18.91650105  21.54039585   1.11031306
-18.81650105  21.55629027   1.11736432
-18.71650105  21.57230640   1.12446957
-18.61650105  21.58844453   1.13162894
-18.51650105  21.60470491   1.13884255
-18.41650105  21.62108782   1.14611051
-18.31650105  21.63759350   1.15343294
-18.21650105  21.65422221   1.16080995
-18.11650105  21.67097418   1.16824164
-18.01650105  21.68784963   1.17572812
-17.91650105  21.70484880   1.18326947
-17.81650105  21.72197189   1.19086581
-17.71650105  21.73921911   1.19851721
-17.61650105  21.75659065   1.20622376
-17.51650105  21.77408670   1.21398555
-17.41650105  21.79170744   1.22180265
-17.31650105  21.80945304   1.22967515
-17.21650105  21.82732366   1.23760311
-17.11650105  21.84531944   1.24558659
-17.01650105  21.86344054   1.25362567
-16.91650105  21.88168708   1.26172040
-16.81650105  21.90005918   1.26987083
-16.71650105  21.91855697   1.27807702
-16.61650105  21.93718054   1.28633902
-16.51650105  21.95593000   1.29465686
-16.41650105  21.97480542   1.30303058
-16.31650105  21.99380688   1.31146021
-16.21650105  22.01293445   1.31994580
-16.11650105  22.03218819   1.32848735
-16.01650105  22.05156814   1.33708489
-15.91650105  22.07107434   1.34573845
-15.81650105  22.09070682   1.35444802
-15.71650105  22.11046558   1.36321362
-15.61650105  22.13035064   1.37203525
-15.51650105  22.15036200   1.38091290
-15.41650105  22.17049964   1.38984658
-15.31650105  22.19076353   1.39883627
-15.21650105  22.21115364   1.40788195
-15.11650105  22.23166992   1.41698361
-15.01650105  22.25231232   1.42614122
-14.91650105  22.27308077   1.43535475
-14.81650105  22.29397520   1.44462416
-14.71650105  22.31499551   1.45394942
-14.61650105  22.33614161   1.46333048
-14.51650105  22.35741339   1.47276730
-14.41650105  22.37881072   1.48225982
-14.31650105  22.40033348   1.49180798
-14.21650105  22.42198152   1.50141172
-14.11650105  22.44375469   1.51107097
-14.01650105  22.46565282   1.52078566
-13.91650105  22.48767574   1.53055571
-13.81650105  22.50982327   1.54038104
-13.71650105  22.53209520   1.55026155
-13.61650105  22.55449132   1.56019717
-13.51650105  22.57701142   1.57018778
-13.41650105  22.59965526   1.58023329
-13.31650105  22.62242260   1.59033358
-13.21650105  22.64531319   1.60048855
-13.11650105  22.66832675   1.61069808
-13.01650105  22.69146302   1.62096205
-12.91650105  22.71472170   1.63128032
-12.81650105  22.73810250   1.64165276
-12.71650105  22.76160509   1.65207924
-12.61650105  22.78522917   1.66255961
-12.51650105  22.80897438   1.67309372
-12.41650105  22.83284040   1.68368142
-12.31650105  22.85682685   1.69432256
-12.21650105  22.88093338   1.70501695
-12.11650105  22.90515959   1.71576445
-12.01650105  22.92950510   1.72656487
-11.91650105  22.95396949   1.73741803
-11.81650105  22.97855237   1.74832376
-11.71650105  23.00325329   1.75928185
-11.61650105  23.02807182   1.77029212
-11.51650105  23.05300751   1.78135436
-11.41650105  23.07805989   1.79246837
-11.31650105  23.10322849   1.80363394
-11.21650105  23.12851283   1.81485085
-11.11650105  23.15391240   1.82611889
-11.01650105  23.17942671   1.83743782
-10.91650105  23.20505521   1.84880742
-10.81650105  23.23079740   1.86022745
-10.71650105  23.25665271   1.87169767
-10.61650105  23.28262060   1.88321783
-10.51650105  23.30870050   1.89478767
-10.41650105  23.33489182   1.90640696
-10.31650105  23.36119399   1.91807541
-10.21650105  23.38760639   1.92979277
-10.11650105  23.41412841   1.94155876
-10.01650105  23.44075944   1.95337310
 -9.91650105  23.46749882   1.96523552
 -9.81650105  23.49434592   1.97714573
 -9.71650105  23.52130008   1.98910342
 -9.61650105  23.54836063   2.00110832
 -9.51650105  23.57552688   2.01316011
 -9.41650105  23.60279814   2.02525848
 -9.31650105  23.63017371   2.03740313
 -9.21650105  23.65765288   2.04959374
 -9.11650105  23.68523491   2.06182998
 -9.01650105  23.71291907   2.07411153
 -8.91650105  23.74070461   2.08643806
 -8.81650105  23.76859078   2.09880922
 -8.71650105  23.79657679   2.11122468
 -8.61650105  23.82466188   2.12368410
 -8.51650105  23.85284525   2.13618711
 -8.41650105  23.88112609   2.14873337
 -8.31650105  23.90950360   2.16132251
 -8.21650105  23.93797694   2.17395416
 -8.11650105  23.96654529   2.18662796
 -8.01650105  23.99520780   2.19934354
 -7.91650105  24.02396361   2.21210051
 -7.81650105  24.05281186   2.22489848
 -7.71650105  24.08175167   2.23773708
 -7.61650105  24.11078216   2.25061590
 -7.51650105  24.13990243   2.26353455
 -7.41650105  24.16911157   2.27649263
 -7.31650105  24.19840867   2.28948973
 -7.21650105  24.22779279   2.30252543
 -7.11650105  24.25726301   2.31559933
 -7.01650105  24.28681838   2.32871101
 -6.91650105  24.31645793   2.34186003
 -6.81650105  24.34618072   2.35504598
 -6.71650105  24.37598576   2.36826841
 -6.61650105  24.40587206   2.38152690
 -6.51650105  24.43583864   2.39482100
 -6.41650105  24.46588449   2.40815027
 -6.31650105  24.49600860   2.42151426
 -6.21650105  24.52620996   2.43491251
 -6.11650105  24.55648752   2.44834458
 -6.01650105  24.58684025   2.46180999
 -5.91650105  24.61726711   2.47530828
 -5.81650105  24.64776704   2.48883900
 -5.71650105  24.67833898   2.50240165
 -5.61650105  24.70898185   2.51599578
 -5.51650105  24.73969457   2.52962089
 -5.41650105  24.77047606   2.54327651
 -5.31650105  24.80132521   2.55696215
 -5.21650105  24.83224093   2.57067731
 -5.11650105  24.86322209   2.58442152
 -5.01650105  24.89426759   2.59819426
 -4.91650105  24.92537629   2.61199504
 -4.81650105  24.95654706   2.62582336
 -4.71650105  24.98777875   2.63967870
 -4.61650105  25.01907022   2.65356057
 -4.51650105  25.05042031   2.66746844
 -4.41650105  25.08182786   2.68140179
 -4.31650105  25.11329169   2.69536012
 -4.21650105  25.14481062   2.70934290
 -4.11650105  25.17638349   2.72334959
 -4.01650105  25.20800909   2.73737969
 -3.91650105  25.23968622   2.75143265
 -3.81650105  25.27141370   2.76550793
 -3.71650105  25.30319030   2.77960502
 -3.61650105  25.33501482   2.79372336
 -3.51650105  25.36688603   2.80786241
 -3.41650105  25.39880271   2.82202164
 -3.31650105  25.43076362   2.83620049
 -3.21650105  25.46276754   2.85039842
 -3.11650105  25.49481322   2.86461487
 -3.01650105  25.52689942   2.87884930
 -2.91650105  25.55902487   2.89310114
 -2.81650105  25.59118834   2.90736985
 -2.71650105  25.62338855   2.92165486
 -2.61650105  25.65562424   2.93595561
 -2.51650105  25.68789414   2.95027154
 -2.41650105  25.72019699   2.96460208
 -2.31650105  25.75253149   2.97894666
 -2.21650105  25.78489638   2.99330473
 -2.11650105  25.81729036   3.00767570
 -2.01650105  25.84971215   3.02205901
 -1.91650105  25.88216045   3.03645408
 -1.81650105  25.91463398   3.05086034
 -1.71650105  25.94713143   3.06527721
 -1.61650105  25.97965150   3.07970412
 -1.51650105  26.01219289   3.09414049
 -1.41650105  26.04475429   3.10858573
 -1.31650105  26.07733440   3.12303928
 -1.21650105  26.10993190   3.13750054
 -1.11650105  26.14254549   3.15196893
 -1.01650105  26.17517383   3.16644387
 -0.91650105  26.20781563   3.18092478
 -0.81650105  26.24046956   3.19541107
 -0.71650105  26.27313429   3.20990216
 -0.61650105  26.30580852   3.22439746
 -0.51650105  26.33849092   3.23889638
 -0.41650105  26.37118016   3.25339834
 -0.31650105  26.40387491   3.26790274
 -0.21650105  26.43657387   3.28240901
 -0.11650105  26.46927569   3.29691655
 -0.01650105  26.50197906   3.31142478
  0.08349895  26.53468265   3.32593310
  0.18349895  26.56738513   3.34044093
  0.28349895  26.60008518   3.35494768
  0.38349895  26.63278147   3.36945277
  0.48349895  26.66547268   3.38395560
  0.58349895  26.69815748   3.39845559
  0.68349895  26.73083455   3.41295215
  0.78349895  26.76350257   3.42744469
  0.88349895  26.79616021   3.44193263
  0.98349895  26.82880615   3.45641538
  1.08349895  26.86143908   3.47089236
  1.18349895  26.89405768   3.48536298
  1.28349895  26.92666064   3.49982665
  1.38349895  26.95924663   3.51428281
  1.48349895  26.99181435   3.52873086
  1.58349895  27.02436249   3.54317022
  1.68349895  27.05688974   3.55760031
  1.78349895  27.08939480   3.57202056
  1.88349895  27.12187637   3.58643039
  1.98349895  27.15433314   3.60082921
  2.08349895  27.18676382   3.61521647
  2.18349895  27.21916712   3.62959157
  2.28349895  27.25154175   3.64395396
  2.38349895  27.28388643   3.65830306
  2.48349895  27.31619986   3.67263830
  2.58349895  27.34848078   3.68695911
  2.68349895  27.38072790   3.70126493
  2.78349895  27.41293996   3.71555520
  2.88349895  27.44511569   3.72982934
  2.98349895  27.47725383   3.74408682
  3.08349895  27.50935312   3.75832705
  3.18349895  27.54141231   3.77254950
  3.28349895  27.57343015   3.78675360
  3.38349895  27.60540539   3.80093881
  3.48349895  27.63733681   3.81510458
  3.58349895  27.66922316   3.82925035
  3.68349895  27.70106322   3.84337558
  3.78349895  27.73285577   3.85747974
  3.88349895  27.76459959   3.87156228
