#      z (A) rho (1e-6/A2) irho (1e-6/A2)
-10.00000000  20.07000037  -0.45799996
 -9.90000000  20.07000044  -0.45799995
 -9.80000000  20.07000052  -0.45799994
 -9.70000000  20.07000062  -0.45799993
 -9.60000000  20.07000073  -0.45799992
 -9.50000000  20.07000087  -0.45799990
 -9.40000000  20.07000102  -0.45799988
 -9.30000000  20.07000121  -0.45799986
 -9.20000000  20.07000142  -0.45799984
 -9.10000000  20.07000168  -0.45799981
 -9.00000000  20.07000197  -0.45799978
 -8.90000000  20.07000232  -0.45799974
 -8.80000000  20.07000273  -0.45799969
 -8.70000000  20.07000320  -0.45799964
 -8.60000000  20.07000376  -0.45799958
 -8.50000000  20.07000440  -0.45799950
 -8.40000000  20.07000516  -0.45799942
 -8.30000000  20.07000603  -0.45799932
 -8.20000000  20.07000705  -0.45799920
 -8.10000000  20.07000824  -0.45799907
 -8.00000000  20.07000961  -0.45799891
 -7.90000000  20.07001121  -0.45799873
 -7.80000000  20.07001306  -0.45799852
 -7.70000000  20.07001520  -0.45799828
 -7.60000000  20.07001768  -0.45799800
 -7.50000000  20.07002054  -0.45799768
 -7.40000000  20.07002385  -0.45799730
 -7.30000000  20.07002767  -0.45799687
 -7.20000000  20.07003207  -0.45799637
 -7.10000000  20.07003715  -0.45799580
 -7.00000000  20.07004299  -0.45799514
 -6.90000000  20.07004970  -0.45799438
 -6.80000000  20.07005742  -0.45799351
 -6.70000000  20.07006628  -0.45799251
 -6.60000000  20.07007644  -0.45799136
 -6.50000000  20.07008808  -0.45799004
 -6.40000000  20.07010141  -0.45798853
 -6.30000000  20.07011667  -0.45798681
 -6.20000000  20.07013410  -0.45798484
 -6.10000000  20.07015401  -0.45798258
 -6.00000000  20.07017673  -0.45798001
 -5.90000000  20.07020263  -0.45797709
 -5.80000000  20.07023212  -0.45797375
 -5.70000000  20.07026569  -0.45796995
 -5.60000000  20.07030386  -0.45796564
 -5.50000000  20.07034723  -0.45796073
 -5.40000000  20.07039645  -0.45795517
 -5.30000000  20.07045226  -0.45794886
 -5.20000000  20.07051551  -0.45794170
 -5.10000000  20.07058710  -0.45793361
 -5.00000000  20.07066809  -0.45792445
 -4.90000000  20.07075960  -0.45791410
 -4.80000000  20.07086294  -0.45790241
 -4.70000000  20.07097951  -0.45788923
 -4.60000000  20.07111091  -0.45787437
 -4.50000000  20.07125888  -0.45785764
 -4.40000000  20.07142537  -0.45783881
 -4.30000000  20.07161254  -0.45781764
 -4.20000000  20.07182276  -0.45779387
 -4.10000000  20.07205869  -0.45776719
 -4.00000000  20.07232321  -0.45773728
 -3.90000000  20.07261956  -0.45770376
 -3.80000000  20.07295124  -0.45766626
 -3.70000000  20.07332218  -0.45762431
 -3.60000000  20.07373663  -0.45757744
 -3.50000000  20.07419931  -0.45752512
 -3.40000000  20.07471537  -0.45746676
 -3.30000000  20.07529047  -0.45740172
 -3.20000000  20.07593081  -0.45732931
 -3.10000000  20.07664315  -0.45724875
 -3.00000000  20.07743492  -0.45715921
 -2.90000000  20.07831419  -0.45705978
 -2.80000000  20.07928978  -0.45694946
 -2.70000000  20.08037130  -0.45682715
 -2.60000000  20.08156921  -0.45669168
 -2.50000000  20.08289486  -0.45654177
 -2.40000000  20.08436059  -0.45637602
 -2.30000000  20.08597981  -0.45619291
 -2.20000000  20.08776701  -0.45599080
 -2.10000000  20.08973790  -0.45576792
 -2.00000000  20.09190945  -0.45552235
 -1.90000000  20.09430002  -0.45525201
 -1.80000000  20.09692940  -0.45495466
 -1.70000000  20.09981890  -0.45462790
 -1.60000000  20.10299149  -0.45426912
 -1.50000000  20.10647187  -0.45387554
 -1.40000000  20.11028655  -0.45344415
 -1.30000000  20.11446400  -0.45297174
 -1.20000000  20.11903472  -0.45245486
 -1.10000000  20.12403137  -0.45188981
 -1.00000000  20.12948886  -0.45127264
 -0.90000000  20.13544448  -0.45059915
 -0.80000000  20.14193804  -0.44986481
 -0.70000000  20.14901193  -0.44906486
 -0.60000000  20.15671128  -0.44819417
 -0.50000000  20.16508408  -0.44724732
 -0.40000000  20.17418130  -0.44621855
 -0.30000000  20.18406927  -0.44509000
 -0.20000000  20.19753221  -0.44125497
 -0.10000000  20.30262535  -0.35080135
 -0.00000000  20.83999923   0.15103638
  0.10000000  21.37840093   0.65299034
  0.20000000  21.48658117   0.74379306
  0.30000000  21.50520144   0.74821131
  0.40000000  21.52233525   0.75015927
  0.50000000  21.54079232   0.75224651
  0.60000000  21.56067178   0.75449460
  0.70000000  21.58206453   0.75691382
  0.80000000  21.60506567   0.75951492
  0.90000000  21.62977452   0.76230915
  1.00000000  21.65629468   0.76530821
  1.10000000  21.68473407   0.76852431
  1.20000000  21.71520494   0.77197013
  1.30000000  21.74782388   0.77565888
  1.40000000  21.78271183   0.77960422
  1.50000000  21.81999403   0.78382031
  1.60000000  21.85979997   0.78832181
  1.70000000  21.90226338   0.79312383
  1.80000000  21.94752210   0.79824195
  1.90000000  21.99571800   0.80369224
  2.00000000  22.04699687   0.80949116
  2.10000000  22.10150827   0.81565563
  2.20000000  22.15940534   0.82220298
  2.30000000  22.22084465   0.82915091
  2.40000000  22.28598598   0.83651748
  2.50000000  22.35499204   0.84432110
  2.60000000  22.42802829   0.85258048
  2.70000000  22.50526257   0.86131459
  2.80000000  22.58686483   0.87054267
  2.90000000  22.67300680   0.88028412
  3.00000000  22.76386159   0.89055852
  3.10000000  22.85960335   0.90138558
  3.20000000  22.96040679   0.91278503
  3.30000000  23.06644682   0.92477668
  3.40000000  23.17789802   0.93738025
  3.50000000  23.29493421   0.95061540
  3.60000000  23.41772790   0.96450165
  3.70000000  23.54644978   0.97905829
  3.80000000  23.68126820   0.99430437
  3.90000000  23.82234854   1.01025858
  4.00000000  23.96985269   1.02693924
  4.10000000  24.12393845   1.04436418
  4.20000000  24.28475887   1.06255072
  4.30000000  24.45246168   1.08151556
  4.40000000  24.62718868   1.10127474
  4.50000000  24.80907503   1.12184354
  4.60000000  24.99824870   1.14323643
  4.70000000  25.19482979   1.16546700
  4.80000000  25.39892991   1.18854787
  4.90000000  25.61065156   1.21249062
  5.00000000  25.83008748   1.23730575
  5.10000000  26.05732010   1.26300258
  5.20000000  26.29242087   1.28958919
  5.30000000  26.53544978   1.31707236
  5.40000000  26.78645473   1.34545750
  5.50000000  27.04547104   1.37474862
  5.60000000  27.31252092   1.40494822
  5.70000000  27.58761304   1.43605729
  5.80000000  27.87074205   1.46807522
  5.90000000  28.16188822   1.50099978
  6.00000000  28.46101703   1.53482706
  6.10000000  28.76807889   1.56955146
  6.20000000  29.08300886   1.60516563
  6.30000000  29.40572640   1.64166047
  6.40000000  29.73613522   1.67902508
  6.50000000  30.07412311   1.71724678
  6.60000000  30.41956193   1.75631107
  6.70000000  30.77230753   1.79620166
  6.80000000  31.13219981   1.83690044
  6.90000000  31.49906283   1.87838751
  7.00000000  31.87270494   1.92064121
  7.10000000  32.25291898   1.96363809
  7.20000000  32.63948260   2.00735303
  7.30000000  33.03215851   2.05175918
  7.40000000  33.43069493   2.09682807
  7.50000000  33.83482600   2.14252963
  7.60000000  34.24427229   2.18883228
  7.70000000  34.65874134   2.23570293
  7.80000000  35.07792828   2.28310710
  7.90000000  35.50151648   2.33100900
  8.00000000  35.92917825   2.37937156
  8.10000000  36.36057561   2.42815656
  8.20000000  36.79536106   2.47732471
  8.30000000  37.23317844   2.52683573
  8.40000000  37.67366378   2.57664845
  8.50000000  38.11644621   2.62672095
  8.60000000  38.56114894   2.67701060
  8.70000000  39.00739014   2.72747424
  8.80000000  39.45478398   2.77806822
  8.90000000  39.90294164   2.82874858
  9.00000000  40.35147227   2.87947111
  9.10000000  40.79998406   2.93019152
  9.20000000  41.24808523   2.98086549
  9.30000000  41.69538511   3.03144884
  9.40000000  42.14149510   3.08189764
  9.50000000  42.58602972   3.13216828
  9.60000000  43.02860759   3.18221764
  9.70000000  43.46885243   3.23200317
  9.80000000  43.90639400   3.28148300
  9.90000000  44.34086904   3.33061605
 10.00000000  44.77192220   3.37936212
 10.10000000  45.19920685   3.42768204
 10.20000000  45.62238596   3.47553767
 10.30000000  46.04113287   3.52289209
 10.40000000  46.45513206   3.56970960
 10.50000000  46.86407983   3.61595587
 10.60000000  47.26768493   3.66159796
 10.70000000  47.66566922   3.70660441
 10.80000000  48.05776818   3.75094531
 10.90000000  48.44373139   3.79459235
 11.00000000  48.82332300   3.83751885
 11.10000000  49.19632208   3.87969982
 11.20000000  49.56252298   3.92111202
 11.30000000  49.92173554   3.96173393
 11.40000000  50.27378533   4.00154583
 11.50000000  50.61851379   4.04052980
 11.60000000  50.95577831   4.07866969
 11.70000000  51.28545227   4.11595120
 11.80000000  51.60742500   4.15236181
 11.90000000  51.92160175   4.18789080
 12.00000000  52.22790346   4.22252924
 12.10000000  52.52626669   4.25626995
 12.20000000  52.81664331   4.28910748
 12.30000000  53.09900024   4.32103809
 12.40000000  53.37331915   4.35205972
 12.50000000  53.63959605   4.38217191
 12.60000000  53.89784092   4.41137579
 12.70000000  54.14807728   4.43967402
 12.80000000  54.39034166   4.46707073
 12.90000000  54.62468316   4.49357148
 13.00000000  54.85116287   4.51918316
 13.10000000  55.06985336   4.54391400
 13.20000000  55.28083804   4.56777341
 13.30000000  55.48421065   4.59077200
 13.40000000  55.68007456   4.61292147
 13.50000000  55.86854225   4.63423453
 13.60000000  56.04973458   4.65472485
 13.70000000  56.22378025   4.67440697
 13.80000000  56.39081510   4.69329628
 13.90000000  56.55098150   4.71140886
 14.00000000  56.70442774   4.72876148
 14.10000000  56.85130735   4.74537151
 14.20000000  56.99177855   4.76125683
 14.30000000  57.12600357   4.77643580
 14.40000000  57.25414814   4.79092716
 14.50000000  57.37638082   4.80474997
 14.60000000  57.49287252   4.81792355
 14.70000000  57.60379590   4.83046743
 14.80000000  57.70932486   4.84240128
 14.90000000  57.80963404   4.85374484
 15.00000000  57.90489835   4.86451790
 15.10000000  57.99529248   4.87474021
 15.20000000  58.08099047   4.88443146
 15.30000000  58.16216534   4.89361120
 15.40000000  58.23898865   4.90229884
 15.50000000  58.31163015   4.91051357
 15.60000000  58.38025750   4.91827437
 15.70000000  58.44503587   4.92559989
 15.80000000  58.50612772   4.93250853
 15.90000000  58.56369252   4.93901830
 16.00000000  58.61788653   4.94514688
 16.10000000  58.66886255   4.95091156
 16.20000000  58.71676978   4.95632920
 16.30000000  58.76175365   4.96141624
 16.40000000  58.80395563   4.96618869
 16.50000000  58.84351318   4.97066210
 16.60000000  58.88055962   4.97485153
 16.70000000  58.91522404   4.97877159
 16.80000000  58.94763127   4.98243640
 16.90000000  58.97790183   4.98585958
 17.00000000  59.00615189   4.98905426
 17.10000000  59.03249328   4.99203310
 17.20000000  59.05703351   4.99480826
 17.30000000  59.07987576   4.99739140
 17.40000000  59.10111895   4.99979371
 17.50000000  59.12085776   5.00202589
 17.60000000  59.13918271   5.00409819
 17.70000000  59.15618021   5.00602036
 17.80000000  59.17193265   5.00780174
 17.90000000  59.18651847   5.00945120
 18.00000000  59.20001227   5.01097716
 18.10000000  59.21248492   5.01238764
 18.20000000  59.22400361   5.01369024
 18.30000000  59.23463202   5.01489217
 18.40000000  59.24443038   5.01600022
 18.50000000  59.25345564   5.01702085
 18.60000000  59.26176153   5.01796013
 18.70000000  59.26939871   5.01882379
 18.80000000  59.27641489   5.01961722
 18.90000000  59.28285492   5.02034550
 19.00000000  59.28876097   5.02101339
 19.10000000  59.29417256   5.02162537
 19.20000000  59.29912678   5.02218562
 19.30000000  59.30365830   5.02269807
 19.40000000  59.30779959   5.02316639
 19.50000000  59.31158092   5.02359401
 19.60000000  59.31503058   5.02398412
 19.70000000  59.31817491   5.02433970
 19.80000000  59.32103844   5.02466352
 19.90000000  59.32364395   5.02495817
 20.00000000  59.32601262   5.02522603
 20.10000000  59.32816411   5.02546934
 20.20000000  59.33011662   5.02569014
 20.30000000  59.33188701   5.02589034
 20.40000000  59.33349086   5.02607172
 20.50000000  59.33494256   5.02623588
 20.60000000  59.33625541   5.02638435
 20.70000000  59.33744164   5.02651850
 20.80000000  59.33851254   5.02663960
 20.90000000  59.33947846   5.02674883
 21.00000000  59.34034895   5.02684727
 21.10000000  59.34113274   5.02693591
 21.20000000  59.34183786   5.02701565
 21.30000000  59.34247163   5.02708732
 21.40000000  59.34304080   5.02715168
 21.50000000  59.34355149   5.02720943
 21.60000000  59.34400931   5.02726121
 21.70000000  59.34441939   5.02730758
 21.80000000  59.34478636   5.02734908
 21.90000000  59.34511449   5.02738619
 22.00000000  59.34540763   5.02741934
 22.10000000  59.34566927   5.02744892
 22.20000000  59.34590260   5.02747531
 22.30000000  59.34611050   5.02749882
 22.40000000  59.34629558   5.02751975
 22.50000000  59.34646020   5.02753837
 22.60000000  59.34660650   5.02755491
 22.70000000  59.34673639   5.02756960
 22.80000000  59.34685163   5.02758263
 22.90000000  59.34695376   5.02759418
 23.00000000  59.34704422   5.02760441
 23.10000000  59.34712425   5.02761346
 23.20000000  59.34719500   5.02762146
 23.30000000  59.34725749   5.02762853
 23.40000000  59.34731264   5.02763477
 23.50000000  59.34736126   5.02764027
 23.60000000  59.34740410   5.02764511
 23.70000000  59.34744180   5.02764937
 23.80000000  59.34747496   5.02765312
 23.90000000  59.34750409   5.02765642
 24.00000000  59.34752967   5.02765931
 24.10000000  59.34755210   5.02766185
 24.20000000  59.34757176   5.02766407
 24.30000000  59.34758897   5.02766602
 24.40000000  59.34760403   5.02766772
 24.50000000  59.34761719   5.02766921
 24.60000000  59.34762868   5.02767051
 24.70000000  59.34763871   5.02767164
 24.80000000  59.34764745   5.02767263
 24.90000000  59.34765506   5.02767349
 25.00000000  59.34766169   5.02767424
 25.10000000  59.34766745   5.02767489
 25.20000000  59.34767246   5.02767546
 25.30000000  59.34767680   5.02767595
 25.40000000  59.34768057   5.02767637
 25.50000000  59.34768383   5.02767674
 25.60000000  59.34768666   5.02767706
 25.70000000  59.34768910   5.02767734
 25.80000000  59.34769121   5.02767758
 25.90000000  59.34769304   5.02767778
 26.00000000  59.34769461   5.02767796
 26.10000000  59.34769596   5.02767812
 26.20000000  59.34769713   5.02767825
 26.30000000  59.34769814   5.02767836
 26.40000000  59.34769900   5.02767846
 26.50000000  59.34769974   5.02767854
 26.60000000  59.34770038   5.02767861
 26.70000000  59.34770092   5.02767868
 26.80000000  59.34770139   5.02767873
 26.90000000  59.34770179   5.02767877
 27.00000000  59.34770213   5.02767881
 27.10000000  59.34770243   5.02767885
 27.20000000  59.34770268   5.02767887
 27.30000000  59.34770289   5.02767890
 27.40000000  59.34770307   5.02767892
 27.50000000  59.34770323   5.02767894
 27.60000000  59.34770336   5.02767895
 27.70000000  59.34770347   5.02767896
 27.80000000  59.34770356   5.02767897
 27.90000000  59.34770364   5.02767898
 28.00000000  59.34770371   5.02767899
 28.10000000  59.34770377   5.02767900
 28.20000000  59.34770382   5.02767900
 28.30000000  59.34770386   5.02767901
 28.40000000  59.34770389   5.02767901
 28.50000000  59.34770392   5.02767902
 28.60000000  59.34770395   5.02767902
 28.70000000  59.34770397   5.02767902
 28.80000000  59.34770399   5.02767902
 28.90000000  59.34770400   5.02767902
 29.00000000  59.34770401   5.02767903
 29.10000000  59.34770403   5.02767903
 29.20000000  59.34770403   5.02767903
 29.30000000  59.34770404   5.02767903
 29.40000000  59.34770405   5.02767903
 29.50000000  59.34770405   5.02767903
 29.60000000  59.34770406   5.02767903
 29.70000000  59.34770406   5.02767903
 29.80000000  59.34770406   5.02767903
 29.90000000  59.34770407   5.02767903
 30.00000000  59.34770407   5.02767903
 30.10000000  59.34770407   5.02767903
 30.20000000  59.34770407   5.02767903
 30.30000000  59.34770407   5.02767903
 30.40000000  59.34770407   5.02767903
 30.50000000  59.34770407   5.02767903
 30.60000000  59.34770407   5.02767903
 30.70000000  59.34770408   5.02767903
 30.80000000  59.34770408   5.02767903
 30.90000000  59.34770408   5.02767903
 31.00000000  59.34770408   5.02767903
 31.10000000  59.34770408   5.02767903
 31.20000000  59.34770408   5.02767903
 31.30000000  59.34770408   5.02767903
 31.40000000  59.34770408   5.02767903
 31.50000000  59.34770408   5.02767903
 31.60000000  59.34770408   5.02767903
 31.70000000  59.34770408   5.02767903
 31.80000000  59.34770408   5.02767903
 31.90000000  59.34770408   5.02767903
 32.00000000  59.34770408   5.02767903
 32.10000000  59.34770408   5.02767903
 32.20000000  59.34770408   5.02767903
 32.30000000  59.34770408   5.02767903
 32.40000000  59.34770408   5.02767903
 32.50000000  59.34770408   5.02767903
 32.60000000  59.34770408   5.02767903
 32.70000000  59.34770408   5.02767903
 32.80000000  59.34770408   5.02767903
 32.90000000  59.34770408   5.02767903
 33.00000000  59.34770408   5.02767903
 33.10000000  59.34770408   5.02767903
 33.20000000  59.34770408   5.02767903
 33.30000000  59.34770408   5.02767903
 33.40000000  59.34770408   5.02767903
 33.50000000  59.34770408   5.02767903
 33.60000000  59.34770408   5.02767903
 33.70000000  59.34770408   5.02767903
 33.80000000  59.34770408   5.02767903
 33.90000000  59.34770408   5.02767903
 34.00000000  59.34770408   5.02767903
 34.10000000  59.34770408   5.02767903
 34.20000000  59.34770408   5.02767903
 34.30000000  59.34770408   5.02767903
 34.40000000  59.34770408   5.02767903
 34.50000000  59.34770408   5.02767903
 34.60000000  59.34770408   5.02767903
 34.70000000  59.34770408   5.02767903
 34.80000000  59.34770408   5.02767903
 34.90000000  59.34770408   5.02767903
 35.00000000  59.34770408   5.02767903
 35.10000000  59.34770408   5.02767903
 35.20000000  59.34770408   5.02767903
 35.30000000  59.34770408   5.02767903
 35.40000000  59.34770408   5.02767903
 35.50000000  59.34770408   5.02767903
 35.60000000  59.34770408   5.02767903
 35.70000000  59.34770408   5.02767903
 35.80000000  59.34770408   5.02767903
 35.90000000  59.34770408   5.02767903
 36.00000000  59.34770408   5.02767903
 36.10000000  59.34770408   5.02767903
 36.20000000  59.34770408   5.02767903
 36.30000000  59.34770408   5.02767903
 36.40000000  59.34770408   5.02767903
 36.50000000  59.34770408   5.02767903
 36.60000000  59.34770408   5.02767903
 36.70000000  59.34770408   5.02767903
 36.80000000  59.34770408   5.02767903
 36.90000000  59.34770408   5.02767903
 37.00000000  59.34770408   5.02767903
 37.10000000  59.34770408   5.02767903
 37.20000000  59.34770408   5.02767903
 37.30000000  59.34770408   5.02767903
 37.40000000  59.34770408   5.02767903
 37.50000000  59.34770408   5.02767903
 37.60000000  59.34770408   5.02767903
 37.70000000  59.34770408   5.02767903
 37.80000000  59.34770408   5.02767903
 37.90000000  59.34770408   5.02767903
 38.00000000  59.34770408   5.02767903
 38.10000000  59.34770408   5.02767903
 38.20000000  59.34770408   5.02767903
 38.30000000  59.34770408   5.02767903
 38.40000000  59.34770408   5.02767903
 38.50000000  59.34770408   5.02767903
 38.60000000  59.34770408   5.02767903
 38.70000000  59.34770408   5.02767903
 38.80000000  59.34770408   5.02767903
 38.90000000  59.34770408   5.02767903
 39.00000000  59.34770408   5.02767903
 39.10000000  59.34770408   5.02767903
 39.20000000  59.34770408   5.02767903
 39.30000000  59.34770408   5.02767903
 39.40000000  59.34770408   5.02767903
 39.50000000  59.34770408   5.02767903
 39.60000000  59.34770408   5.02767903
 39.70000000  59.34770408   5.02767903
 39.80000000  59.34770408   5.02767903
 39.90000000  59.34770408   5.02767903
 40.00000000  59.34770408   5.02767903
 40.10000000  59.34770408   5.02767903
 40.20000000  59.34770408   5.02767903
 40.30000000  59.34770408   5.02767903
 40.40000000  59.34770408   5.02767903
 40.50000000  59.34770408   5.02767903
 40.60000000  59.34770408   5.02767903
 40.70000000  59.34770408   5.02767903
 40.80000000  59.34770408   5.02767903
 40.90000000  59.34770408   5.02767903
 41.00000000  59.34770408   5.02767903
