# intensity: 0.965677969648726
# background: 4.19058578055094e-08
#           Q (1/A)             dQ (1/A)                    R                   dR               theory              fresnel
  0.0100976750254631 8.94795855025937e-05     0.93124911323173  0.00862415072380786    0.964606222062106    0.866026120722646
  0.0105422083288431 9.26017716694294e-05    0.947038219250378  0.00874612473448181    0.959142549561907    0.384824798994202
  0.0109720593318343 9.56316662455453e-05    0.942354168621822  0.00870015096257847    0.954135126717107    0.212917003299388
  0.0114165619015694 9.87749341458298e-05    0.946147815501342  0.00872741042374874    0.948817570953463    0.142342448020113
  0.0118434829637408 0.000101802681825692     0.94113785878033  0.00869056615801293    0.942907131000762    0.104151787834528
  0.0122879669070244 0.000104963352583564    0.950002422670989  0.00876709131881987     0.93546445777711   0.0787761895407837
  0.0127207692712545 0.000108048445380633    0.948261858536957  0.00873480166214589    0.926474617350954   0.0618698187315964
  0.0131652429699898 0.000111223778253412    0.922049570416205  0.00854949561999018      0.9148395603587   0.0494248131925837
  0.0136009994894266 0.000114343183406141    0.914354083329627  0.00849324673824857     0.90028236837746    0.040373550648516
   0.014045431278646 0.000117530648781522    0.903133516284981  0.00840696366798832    0.881170078200229   0.0333429899747499
  0.0144841149449348 0.000120682327839588    0.874346399966104   0.0082245978922931      0.8567132577452   0.0279450267311706
  0.0149285960942507 0.000123880747712862    0.838453592857205  0.00794407795677243    0.824512213863355   0.0236149691434754
  0.0153584899380803 0.000126978714203936    0.812734662792899  0.00777372162116445    0.784170788001736   0.0202435855519272
  0.0158058758825064 0.000130207089030339     0.74130477484216  0.00722426888008932    0.730207395669463   0.0173847105946061
  0.0162357520312071 0.000133312999205581     0.67045621613384  0.00671327826880056    0.664671484148578   0.0151211203656111
  0.0166802443563938 0.000136528270739724    0.591525446996473  0.00612721112464954    0.581575011602578    0.013173477247295
  0.0171130411326885 0.000139662318733363    0.475386311041537  0.00523255764363016    0.486845556197015   0.0115822283381303
   0.017560450360179 0.000142905475587019    0.372946012202883  0.00443816910617917    0.379669204743768   0.0101922413467914
  0.0179932322353125 0.000146045583051335    0.267906748090492  0.00358082214890883    0.276295955394108  0.00904798380198499
  0.0184377077966929 0.000149209254178506    0.171668765252974  0.00270715959558421    0.182252895613271  0.00804119676637595
  0.0188646260648966 0.000151801556972429     0.11058454572889  0.00211337857362894    0.113335475863959  0.00720716716677105
  0.0193120259791613 0.000154533594037251   0.0720097300352674  0.00167285249287101   0.0683724260100604  0.00644986085002506
  0.0197477731853724 0.000157208795985361    0.061388383689342  0.00153405059584355   0.0496553285574694  0.00580827604186485
  0.0201951861381531  0.00015996959148726   0.0618670039554854  0.00153913410418245   0.0500442632238602  0.00523283554111017
  0.0206309147179127 0.000162671192538097   0.0710467625468238  0.00164739127783172   0.0621977634807443  0.00474109797792002
  0.0210695490241051  0.00016540306052953   0.0881360856284563  0.00185667107189336   0.0799441246019362  0.00430463100756704
  0.0214994288980961 0.000168091752173905    0.105712900714044  0.00207021457418792   0.0983210744518764  0.00392583380195881
  0.0219438672065735 0.000191024916855853    0.114271598341552  0.00119455010819887      0.1150955062951  0.00358164205316297
   0.022826986387372 0.000198723759050931    0.133882521254535  0.00130159723754277    0.138041417615643  0.00300198606227885
  0.0236926041543484 0.000206280972437685    0.142154104482979  0.00134188022251288    0.144860294849079  0.00254312223071571
  0.0245756395161152 0.000213943333204586    0.135284269773611  0.00128523629718637    0.137286765385805  0.00216347952698926
  0.0254470705986023 0.000221703758271679    0.118046843737756  0.00116276930699132    0.119130013171701   0.0018568607821322
  0.0263243243098259 0.000229126501304735   0.0922130510145352 0.000983205476991476   0.0945818625463864  0.00160199461973982
  0.0272073857486248 0.000236824829377245    0.069141724126706 0.000817271621782076   0.0681643478377097  0.00138866367344888
  0.0280759036540985 0.000244636988825078   0.0446861819689107 0.000624230371706679   0.0445489053686852  0.00121287821225174
  0.0289560649544001 0.000251971954910976   0.0253876976220391 0.000451518179591262   0.0258856009618146  0.00106256394060053
  0.0298362318426371 0.000259631686068077   0.0136551252278589 0.000322009292374698   0.0137974400019725 0.000935074676231611
  0.0307105109095573 0.000267484313766815  0.00751250936378801 0.000234027142282274  0.00798435988516668 0.000827028608247423
  0.0315906777977943 0.000274945517941933  0.00719943567005599 0.000226433356378762  0.00690879316611966 0.000733729214040376
  0.0324679352343082 0.000282819204045126  0.00758370521811663 0.000205151662514663  0.00867380811809805  0.00065359281719086
  0.0333451293408871 0.000290530053358959   0.0107466877482524 0.000243584764137924   0.0114442580881262 0.000584208217854522
  0.0342194251716137 0.000297859367903768   0.0137013402991662 0.000273661219649434   0.0138329198727968 0.000524058436945227
  0.0350995548069477 0.000305680888721688   0.0158814080025576 0.000293586039348406   0.0150492794241332 0.000471188902534788
  0.0359680019319057 0.000313131412610365   0.0157730181201977  0.00028905394112798   0.0148053187826246 0.000425449988328618
   0.036848146468401 0.000320898964609113   0.0146090652247543 0.000276269208454799   0.0132299441767834 0.000384662743665502
  0.0377136319875717 0.000328581073906534  0.00979029471755316 0.000201360302714875   0.0107696109844319 0.000349247857294646
  0.0385996252298355 0.000336064958535839  0.00757553208024251 0.000174638043004409  0.00783438974609053  0.00031714722620222
  0.0394767932593822 0.000343721171088787  0.00540158150313791 0.000145457947915826  0.00502157154752506 0.000288935763834576
  0.0403481386601925 0.000351336175408717  0.00283433745361905  0.00010373226200909   0.0027111440399968 0.000263973063805969
  0.0412253364920616 0.000358902151028724  0.00128704629684119 6.93355014269003e-05  0.00110307905332709  0.00024152550186454
  0.0421054288744927 0.000366759464370773  0.00040544865594708 3.90646700294597e-05 0.000269486002666194 0.000221363079029651
  0.0429767481982708 0.000374265823618197 0.000256411905247594 3.12555708927451e-05   0.0001225292395407 0.000203445472814267
  0.0438642874360085 0.000381937821992783 0.000504528185814026 2.09669257414046e-05 0.000469644637508931 0.000187029008705096
  0.0447332412004471 0.000389656090610967  0.00103260361610264 3.42615759746028e-05  0.00106029136662587 0.000172536923120124
  0.0456104166805744 0.000396996319571379   0.0016307718067498 4.27651936811048e-05  0.00168477850288763 0.000159313151508328
  0.0464897826313972 0.000404775785562643  0.00223448935078351  4.9621352271978e-05  0.00216304369730727 0.000147309544432979
  0.0473691187798977 0.000412555145529936  0.00243660675347302 5.14398884092591e-05  0.00238895015785209 0.000136420785397761
  0.0482462495565414 0.000420030094266406  0.00237729900579418 5.04832849746871e-05  0.00233464487740527 0.000126547590762803
  0.0491189770400524 0.000427816833237014    0.001769724710851 4.08655526862124e-05  0.00204006544440388 0.000117599434328623
  0.0499983131885529 0.000435469701608782  0.00140454900114673 3.59829926883125e-05  0.00158395088160372 0.000109372818489389
  0.0508732311427593 0.000443001028970592 0.000986610567679581 2.97792191801564e-05  0.00107620065505499 0.000101891718691133
  0.0517459735274315 0.000450760671609349 0.000588773480997378 2.28880204347431e-05 0.000618363934569969 9.50590446071012e-05
  0.0526274517178535  0.00045807665981244 0.000288771996986586 1.60474842404083e-05 0.000287457157217954 8.87320328394669e-05
  0.0535089559853077 0.000465870805770564 0.000159870926504618 1.20131039092111e-05 0.000136964598713749 8.29240294695922e-05
  0.0543794669210911 0.000473601055160108  0.00020266867272996 1.32813695579776e-05 0.000175018268602689 7.76495286315356e-05
   0.055258747190237 0.000481131201869689 0.000424026959550512 1.77925853716899e-05 0.000375271104643535 7.27427143797307e-05
  0.0561380349099636 0.000488909562985035 0.000732091805536619 2.32874376214759e-05 0.000684790523903305 6.82185252209738e-05
  0.0570129118859768 0.000496422168328545   0.0010931797481838  2.8411553650038e-05  0.00103454554705823 6.40621864166771e-05
  0.0578943639993668 0.000503981286620987  0.00135869284659102 3.15531692966417e-05  0.00136112152293309 6.01911657028546e-05
  0.0587779954075813 0.000511929998997927  0.00166414252508605  3.4881433407966e-05  0.00160527954004299 5.66004606355067e-05
  0.0596550591289997  0.00051944423633691  0.00175379568565181  3.5659950691851e-05  0.00172809952714341 5.32980268404347e-05
  0.0605233274400234 0.000527018239980929  0.00183396767123933 3.63519019572081e-05   0.0017186581751589 5.02637106102148e-05
     0.0614003688097 0.000534780354995215  0.00154713803562099 3.14277082230204e-05  0.00158590707126097 4.74157562393119e-05
   0.062277402728796 0.000542091412725664  0.00125724967858225 2.80355469096779e-05   0.0013572054686666 4.47672739577705e-05
   0.063158817589283  0.00054999246479794 0.000997726401314707  2.4721306288123e-05  0.00107060545946687 4.22899615104801e-05
  0.0640402138233185  0.00055767688717241 0.000751487265896993 2.12510654869015e-05 0.000771437189709273 3.99821744499203e-05
  0.0649194270372391 0.000565138392464289 0.000456864705209044 1.63491518830624e-05 0.000500984485517787 3.78352434171145e-05
  0.0657898336648941 0.000573042700514805 0.000291007173557588 1.29833220915659e-05 0.000291078288421147 3.58504859539896e-05
  0.0666624680161476  0.00058055676323067 0.000144507733083991 8.66666510380245e-06 0.000155298437753716 3.39901244975505e-05
  0.0675394311547279 0.000588083312930543 0.000101833999430655 7.27416313944906e-06 9.68995235565434e-05 3.22409647684775e-05
  0.0684208050370217 0.000595875401853738 0.000109339770129026 7.48277474341955e-06 0.000106842059983522 3.05952683343999e-05
  0.0692999586462975 0.000603390235595893 0.000197505751566912 9.95677536607525e-06 0.000165616261455667 2.90572855006392e-05
  0.0701782405376434 0.000610970989148389 0.000293699709126666 1.08161559238738e-05 0.000248623205090096 2.76163960326474e-05
  0.0710429102182388 0.000618644928252258 0.000314817659725223  2.4668309078921e-05 0.000330251702501659 2.62844223203794e-05
  0.0719198510050774 0.000626170959677605 0.000445851817203578 2.92221192186519e-05 0.000392967648902416 2.50149085313494e-05
  0.0727967917919159 0.000633931375764587 0.000438033735692377 2.76863266144777e-05 0.000422332086789645   2.382137030699e-05
  0.0736737176775932 0.000641457069474327  0.00047157808585938 2.85582267291665e-05 0.000413423549730392 2.26984917499806e-05
  0.0745681747794151 0.000649232766318501 0.000397474395668184 2.61559011223326e-05  0.00036824462236317 2.16206941091808e-05
  0.0754450783133507 0.000656992649376847 0.000305831181595133  2.2850965220598e-05 0.000298258458611822  2.0625570000339e-05
  0.0763219818472862 0.000664518016020624 0.000205801557645289 1.86916980607079e-05 0.000216172302558471 1.96872491267414e-05
  0.0771813243627548 0.000672153768129233 0.000154409644850908 1.61831923369152e-05  0.00013771302011374 1.88191462606692e-05
  0.0780582129955292 0.000679913318352049 9.04659065901447e-05 1.19018995649804e-05 7.18614329888548e-05  1.7982363460465e-05
  0.0789350792765617 0.000687221685847663 3.97715357237387e-05 8.17245397986894e-06 2.88111015681958e-05 1.71917380239047e-05
  0.0798207074403763 0.000695042709469325 1.74146402792219e-05 5.76325998534662e-06 1.20928101271822e-05 1.64370170922858e-05
  0.0806975588202477 0.000702567289054565 3.44626483228305e-05 7.57283374656378e-06 2.04770143124457e-05 1.57302440536075e-05
  0.0815744027495384 0.000710091707532509 6.14549502391355e-05 9.78768321740443e-06 4.79161067975076e-05 1.50612519609127e-05
  0.0824512392282486 0.000717958524291722 0.000117464292884958 1.32082639891367e-05 8.58541202916207e-05 1.44275960529753e-05
  0.0833280608057976 0.000725608756498315  0.00016395570232214 1.54443585583384e-05 0.000124894665730695 1.38270563427747e-05
  0.0842048674821853 0.000733132690026783 0.000180453557118768 1.55812237818113e-05 0.000156563088459795 1.32575705415114e-05
    0.08507289737463  0.00074082897842469 0.000185650721619041 1.56961887211175e-05 0.000174635669951898 1.27225217960385e-05
  0.0859496966004372 0.000748244351944654 0.000192869110843379 1.59773393423753e-05 0.000176655062639947 1.22093179039634e-05
  0.0868264585733414 0.000756002097739825 0.000191908054454346 1.58592796765601e-05 0.000162971142356132 1.17218715816663e-05
  0.0877032354474068 0.000763759744406773 0.000149062705197457 1.39929857239275e-05 0.000137242333494906  1.1258613996868e-05
  0.0885799899697304 0.000771174614259751 0.000119160176616683 1.24885544521643e-05 0.000105241841177124 1.08181343497118e-05
  0.0894567370414734 0.000779040073475705 9.09775615286178e-05 1.04647523223046e-05 7.36267314281868e-05 1.03991121768478e-05
  0.0903422459959984  0.00078653452335277 7.04351275968331e-05 9.23991341016138e-06 4.84435103502441e-05 9.99638138759611e-06
  0.0912189707159996 0.000794165225219649 3.82946927841156e-05 6.91568752076741e-06 3.49680238946692e-05 9.61676611469122e-06
  0.0920956805348396 0.000801921955857266 2.78505261134124e-05 5.93855248593272e-06 3.53625713465019e-05 9.25511004406272e-06
  0.0929723829030991 0.000809335964945284 5.21022136985373e-05 7.84844661828113e-06  4.9492934549907e-05  8.9103896834123e-06
  0.0938490852713585 0.000817092341801329 7.60938812604537e-05 9.35472443832366e-06 7.48406800297538e-05 8.58166541863133e-06
  0.0947257727384568 0.000824956755440019 7.87563110564165e-05 9.45780481611336e-06 0.000107046937456887 8.26805443721427e-06
  0.0956024304032326 0.000832370122225134 0.000132080257069999   1.171600593266e-05 0.000140773078784964 7.96872471257921e-06
  0.0964703261852264 0.000840064031323786 0.000156083551060735 1.26587991173331e-05 0.000170375255893857 7.68570221271965e-06
  0.0973469614982605 0.000847477074380011 0.000192056255180765 1.39778712258177e-05   0.0001919509790616 7.41255204290545e-06
  0.0982236117124558 0.000855124323642849 0.000198513154188767 1.41489329512934e-05 0.000202134719362434 7.15150325035497e-06
  0.0991002172231674 0.000862987699147389 0.000179966265750087 1.34128870487093e-05 0.000199771023425457 6.90193601433642e-06
  0.0999768376350403 0.000870400156478637  0.00016346071748318 1.27532466832207e-05  0.00018563471480591 6.66322844780135e-06
   0.100853428244591  0.00087815495752589  0.00015368719281497 1.19493380567617e-05 0.000162127890865181 6.43483659845903e-06
   0.101738780736923 0.000885863233723654 0.000131353433577323 1.10348722428501e-05 0.000132487085672625 6.21407804160855e-06
   0.102615356445312 0.000893275220422789 8.17252243948509e-05 8.70950368052169e-06  0.00010134602455214 6.00481798102105e-06
    0.10349190980196 0.000901029341146389 7.95417140126893e-05 8.56708399888852e-06 7.22547636341134e-05 5.80437119265878e-06
   0.104368470609188 0.000908765396030782 3.80010495833143e-05 5.97442753247328e-06 4.82706977523031e-05 5.61228115026013e-06
   0.105245001614094 0.000916302845745748 3.34080622262107e-05 5.60645377152658e-06 3.13008794680019e-05 5.42814110182771e-06
   0.106121525168419  0.00092405637597025 2.77124818368399e-05  5.1224138761382e-06 2.19461975707491e-05 5.25155765802356e-06
    0.10698926448822 0.000931297316063017 1.33739965544734e-05 3.55440003922034e-06 1.95527875342744e-05 5.08381561114594e-06
   0.107874527573586 0.000939094247716413 2.28008212755051e-05 4.49699571935825e-06 2.25183066090352e-05 4.91960209035136e-06
   0.108742244541645 0.000946785311014563 2.08609809428127e-05 4.31517736269315e-06 2.85424751098814e-05 4.76509051104834e-06
   0.109618715941906 0.000954195621819516  2.6071156980143e-05 4.76781272119242e-06  3.5416362869101e-05 4.61517839444208e-06
   0.110495172441006 0.000961948029016448 3.43214691508308e-05 5.40214617521587e-06 4.10156970111657e-05 4.47117796856307e-06
   0.111371606588364 0.000969700260590969 3.79650140371209e-05 5.66504401472248e-06 4.38515379924699e-05 4.33280998090825e-06
   0.112256810069084 0.000977171752561482 2.58000497470681e-05 4.74720521127102e-06 4.31869774506367e-05 4.19849968196677e-06
   0.113141991198063 0.000985093529094203 3.23477694659857e-05 5.25225740810336e-06 3.90624873790993e-05 4.06941108702207e-06
   0.114018388092518 0.000992628805360403 2.05137797660455e-05 4.12821785633081e-06 3.23482358517574e-05 3.94650409169616e-06
   0.114894777536392  0.00100014591858546 2.86433738757027e-05 4.75074785201616e-06 2.42399806503394e-05 3.82825532820977e-06
   0.115771144628525  0.00100789699219947 1.51329680179255e-05 3.60461942426952e-06 1.61326563614245e-05 3.71445734696299e-06
   0.116647519171238  0.00101541369914175 7.98850465172275e-06 2.81873537415311e-06 9.31057516417894e-06 3.60490266162993e-06
   0.117523863911629  0.00102305626770995 9.23432034293212e-06 2.96524560148011e-06 4.72038886660048e-06 3.49940933174032e-06
   0.118382669985294  0.00103068298194799 5.64181082697015e-06 2.51295218534107e-06 2.83606357033306e-06 3.39979298998624e-06
   0.119258977472782  0.00103819891712789 1.02703703725521e-05 3.08210516928832e-06 3.51990349027468e-06 3.30182108204943e-06
    0.12013528496027  0.00104594888367646 1.27652537336384e-05 3.34753194662427e-06 6.31420461864085e-06 3.20739959767325e-06
   0.121011562645435  0.00105346433856415 1.46099499888479e-05 3.53645805989152e-06 1.03648557062011e-05 3.11637555692276e-06
   0.121887840330601  0.00106110561179863 2.55395619199694e-05 4.44208821147479e-06 1.46790326563541e-05 3.02860233804479e-06
   0.122764103114605  0.00106885484523493 2.01072248285973e-05 4.03195498326807e-06 1.83191245118514e-05 2.94394379784015e-06
   0.123640343546867   0.0010761534389457  2.9906127845852e-05 4.46235459753822e-06 2.05777845084652e-05 2.86226535737836e-06
   0.124516569077969   0.0010840101714109 2.21695892734605e-05  3.8828736180684e-06 2.10893068526026e-05 2.78344572444148e-06
   0.125392779707909   0.0010916505851846 2.61679968313305e-05 4.14184396565624e-06 1.98816226393519e-05 2.70736264400664e-06
   0.126268982887268  0.00109905656516266 2.15493856124721e-05 3.78008244099132e-06 1.73394063965771e-05  2.6339021267482e-06
   0.127145171165466   0.0011069125630896 1.45802751789359e-05 3.17066201406761e-06  1.4111349918871e-05 2.56295932552126e-06
   0.128021329641342  0.00111453413468838 8.89877707366889e-06   2.580895396889e-06 1.09748789835206e-05 2.49443014227274e-06
   0.128897488117218   0.0011219573782649 1.24276053926695e-05 2.93039538925548e-06 8.68094300496772e-06 2.42821452066734e-06
   0.129773616790771  0.00112981260211824 1.35845397919506e-05 3.02111942469229e-06 7.81826593629163e-06 2.36422292499296e-06
   0.130649745464325  0.00113732539427272 2.14097075743643e-05 3.65894558995767e-06  8.7052092595517e-06 2.30236272260089e-06
   0.131525844335556  0.00114496392936325 1.19872705511626e-05 2.84125616897436e-06 1.13456577537125e-05 2.24255227049867e-06
   0.132401943206787  0.00115269233027195 1.57086392555461e-05 3.16244582280388e-06 1.54326451612706e-05 2.18470858772437e-06
   0.133277997374535   0.0011601142303092 2.23035168900952e-05 3.68805291945022e-06  2.0410176253235e-05 2.12875551755681e-06
   0.134162828326225  0.00116779588434973 2.82642093331064e-05   3.944075672574e-06  2.5625572359173e-05 2.07408718521788e-06
    0.13503885269165  0.00117543342882649 3.61908087897952e-05 4.41490838670224e-06 3.02379892362148e-05 2.02171420870227e-06
