#      z (A) rho (1e-6/A2) irho (1e-6/A2) rhoM (1e-6/A2) theta (degrees)
-134.77870138   2.06940156   0.00000000   0.00000000 270.00000000
-134.67870138   2.06938984   0.00000000   0.00000000 270.00000000
-134.57870138   2.06937804   0.00000000   0.00000000 270.00000000
-134.47870138   2.06936617   0.00000000   0.00000000 270.00000000
-134.37870138   2.06935421   0.00000000   0.00000000 270.00000000
-134.27870138   2.06934217   0.00000000   0.00000000 270.00000000
-134.17870138   2.06933006   0.00000000   0.00000000 270.00000000
-134.07870138   2.06931786   0.00000000   0.00000000 270.00000000
-133.97870138   2.06930558   0.00000000   0.00000000 270.00000000
-133.87870138   2.06929322   0.00000000   0.00000000 270.00000000
-133.77870138   2.06928077   0.00000000   0.00000000 270.00000000
-133.67870138   2.06926825   0.00000000   0.00000000 270.00000000
-133.57870138   2.06925564   0.00000000   0.00000000 270.00000000
-133.47870138   2.06924295   0.00000000   0.00000000 270.00000000
-133.37870138   2.06923017   0.00000000   0.00000000 270.00000000
-133.27870138   2.06921731   0.00000000   0.00000000 270.00000000
-133.17870138   2.06920436   0.00000000   0.00000000 270.00000000
-133.07870138   2.06919133   0.00000000   0.00000000 270.00000000
-132.97870138   2.06917821   0.00000000   0.00000000 270.00000000
-132.87870138   2.06916500   0.00000000   0.00000000 270.00000000
-132.77870138   2.06915171   0.00000000   0.00000000 270.00000000
-132.67870138   2.06913833   0.00000000   0.00000000 270.00000000
-132.57870138   2.06912486   0.00000000   0.00000000 270.00000000
-132.47870138   2.06911130   0.00000000   0.00000000 270.00000000
-132.37870138   2.06909765   0.00000000   0.00000000 270.00000000
-132.27870138   2.06908392   0.00000000   0.00000000 270.00000000
-132.17870138   2.06907009   0.00000000   0.00000000 270.00000000
-132.07870138   2.06905617   0.00000000   0.00000000 270.00000000
-131.97870138   2.06904216   0.00000000   0.00000000 270.00000000
-131.87870138   2.06902806   0.00000000   0.00000000 270.00000000
-131.77870138   2.06901387   0.00000000   0.00000000 270.00000000
-131.67870138   2.06899958   0.00000000   0.00000000 270.00000000
-131.57870138   2.06898520   0.00000000   0.00000000 270.00000000
-131.47870138   2.06897073   0.00000000   0.00000000 270.00000000
-131.37870138   2.06895616   0.00000000   0.00000000 270.00000000
-131.27870138   2.06894149   0.00000000   0.00000000 270.00000000
-131.17870138   2.06892673   0.00000000   0.00000000 270.00000000
-131.07870138   2.06891188   0.00000000   0.00000000 270.00000000
-130.97870138   2.06889693   0.00000000   0.00000000 270.00000000
-130.87870138   2.06888188   0.00000000   0.00000000 270.00000000
-130.77870138   2.06886673   0.00000000   0.00000000 270.00000000
-130.67870138   2.06885148   0.00000000   0.00000000 270.00000000
-130.57870138   2.06883614   0.00000000   0.00000000 270.00000000
-130.47870138   2.06882069   0.00000000   0.00000000 270.00000000
-130.37870138   2.06880515   0.00000000   0.00000000 270.00000000
-130.27870138   2.06878950   0.00000000   0.00000000 270.00000000
-130.17870138   2.06877375   0.00000000   0.00000000 270.00000000
-130.07870138   2.06875790   0.00000000   0.00000000 270.00000000
-129.97870138   2.06874195   0.00000000   0.00000000 270.00000000
-129.87870138   2.06872590   0.00000000   0.00000000 270.00000000
-129.77870138   2.06870974   0.00000000   0.00000000 270.00000000
-129.67870138   2.06869348   0.00000000   0.00000000 270.00000000
-129.57870138   2.06867711   0.00000000   0.00000000 270.00000000
-129.47870138   2.06866064   0.00000000   0.00000000 270.00000000
-129.37870138   2.06864406   0.00000000   0.00000000 270.00000000
-129.27870138   2.06862737   0.00000000   0.00000000 270.00000000
-129.17870138   2.06861058   0.00000000   0.00000000 270.00000000
-129.07870138   2.06859368   0.00000000   0.00000000 270.00000000
-128.97870138   2.06857667   0.00000000   0.00000000 270.00000000
-128.87870138   2.06855955   0.00000000   0.00000000 270.00000000
-128.77870138   2.06854232   0.00000000   0.00000000 270.00000000
-128.67870138   2.06852499   0.00000000   0.00000000 270.00000000
-128.57870138   2.06850754   0.00000000   0.00000000 270.00000000
-128.47870138   2.06848998   0.00000000   0.00000000 270.00000000
-128.37870138   2.06847230   0.00000000   0.00000000 270.00000000
-128.27870138   2.06845452   0.00000000   0.00000000 270.00000000
-128.17870138   2.06843662   0.00000000   0.00000000 270.00000000
-128.07870138   2.06841861   0.00000000   0.00000000 270.00000000
-127.97870138   2.06840048   0.00000000   0.00000000 270.00000000
-127.87870138   2.06838224   0.00000000   0.00000000 270.00000000
-127.77870138   2.06836388   0.00000000   0.00000000 270.00000000
-127.67870138   2.06834541   0.00000000   0.00000000 270.00000000
-127.57870138   2.06832681   0.00000000   0.00000000 270.00000000
-127.47870138   2.06830810   0.00000000   0.00000000 270.00000000
-127.37870138   2.06828927   0.00000000   0.00000000 270.00000000
-127.27870138   2.06827033   0.00000000   0.00000000 270.00000000
-127.17870138   2.06825126   0.00000000   0.00000000 270.00000000
-127.07870138   2.06823207   0.00000000   0.00000000 270.00000000
-126.97870138   2.06821276   0.00000000   0.00000000 270.00000000
-126.87870138   2.06819333   0.00000000   0.00000000 270.00000000
-126.77870138   2.06817377   0.00000000   0.00000000 270.00000000
-126.67870138   2.06815410   0.00000000   0.00000000 270.00000000
-126.57870138   2.06813430   0.00000000   0.00000000 270.00000000
-126.47870138   2.06811437   0.00000000   0.00000000 270.00000000
-126.37870138   2.06809432   0.00000000   0.00000000 270.00000000
-126.27870138   2.06807414   0.00000000   0.00000000 270.00000000
-126.17870138   2.06805384   0.00000000   0.00000000 270.00000000
-126.07870138   2.06803341   0.00000000   0.00000000 270.00000000
-125.97870138   2.06801285   0.00000000   0.00000000 270.00000000
-125.87870138   2.06799216   0.00000000   0.00000000 270.00000000
-125.77870138   2.06797135   0.00000000   0.00000000 270.00000000
-125.67870138   2.06795040   0.00000000   0.00000000 270.00000000
-125.57870138   2.06792932   0.00000000   0.00000000 270.00000000
-125.47870138   2.06790811   0.00000000   0.00000000 270.00000000
-125.37870138   2.06788677   0.00000000   0.00000000 270.00000000
-125.27870138   2.06786529   0.00000000   0.00000000 270.00000000
-125.17870138   2.06784369   0.00000000   0.00000000 270.00000000
-125.07870138   2.06782194   0.00000000   0.00000000 270.00000000
-124.97870138   2.06780007   0.00000000   0.00000000 270.00000000
-124.87870138   2.06777805   0.00000000   0.00000000 270.00000000
-124.77870138   2.06775590   0.00000000   0.00000000 270.00000000
-124.67870138   2.06773361   0.00000000   0.00000000 270.00000000
-124.57870138   2.06771119   0.00000000   0.00000000 270.00000000
-124.47870138   2.06768862   0.00000000   0.00000000 270.00000000
-124.37870138   2.06766592   0.00000000   0.00000000 270.00000000
-124.27870138   2.06764307   0.00000000   0.00000000 270.00000000
-124.17870138   2.06762009   0.00000000   0.00000000 270.00000000
-124.07870138   2.06759696   0.00000000   0.00000000 270.00000000
-123.97870138   2.06757369   0.00000000   0.00000000 270.00000000
-123.87870138   2.06755028   0.00000000   0.00000000 270.00000000
-123.77870138   2.06752672   0.00000000   0.00000000 270.00000000
-123.67870138   2.06750301   0.00000000   0.00000000 270.00000000
-123.57870138   2.06747917   0.00000000   0.00000000 270.00000000
-123.47870138   2.06745517   0.00000000   0.00000000 270.00000000
-123.37870138   2.06743103   0.00000000   0.00000000 270.00000000
-123.27870138   2.06740674   0.00000000   0.00000000 270.00000000
-123.17870138   2.06738230   0.00000000   0.00000000 270.00000000
-123.07870138   2.06735771   0.00000000   0.00000000 270.00000000
-122.97870138   2.06733297   0.00000000   0.00000000 270.00000000
-122.87870138   2.06730808   0.00000000   0.00000000 270.00000000
-122.77870138   2.06728304   0.00000000   0.00000000 270.00000000
-122.67870138   2.06725784   0.00000000   0.00000000 270.00000000
-122.57870138   2.06723250   0.00000000   0.00000000 270.00000000
-122.47870138   2.06720699   0.00000000   0.00000000 270.00000000
-122.37870138   2.06718133   0.00000000   0.00000000 270.00000000
-122.27870138   2.06715552   0.00000000   0.00000000 270.00000000
-122.17870138   2.06712955   0.00000000   0.00000000 270.00000000
-122.07870138   2.06710342   0.00000000   0.00000000 270.00000000
-121.97870138   2.06707713   0.00000000   0.00000000 270.00000000
-121.87870138   2.06705069   0.00000000   0.00000000 270.00000000
-121.77870138   2.06702408   0.00000000   0.00000000 270.00000000
-121.67870138   2.06699731   0.00000000   0.00000000 270.00000000
-121.57870138   2.06697038   0.00000000   0.00000000 270.00000000
-121.47870138   2.06694329   0.00000000   0.00000000 270.00000000
-121.37870138   2.06691603   0.00000000   0.00000000 270.00000000
-121.27870138   2.06688861   0.00000000   0.00000000 270.00000000
-121.17870138   2.06686103   0.00000000   0.00000000 270.00000000
-121.07870138   2.06683328   0.00000000   0.00000000 270.00000000
-120.97870138   2.06680536   0.00000000   0.00000000 270.00000000
-120.87870138   2.06677727   0.00000000   0.00000000 270.00000000
-120.77870138   2.06674901   0.00000000   0.00000000 270.00000000
-120.67870138   2.06672059   0.00000000   0.00000000 270.00000000
-120.57870138   2.06669199   0.00000000   0.00000000 270.00000000
-120.47870138   2.06666323   0.00000000   0.00000000 270.00000000
-120.37870138   2.06663429   0.00000000   0.00000000 270.00000000
-120.27870138   2.06660518   0.00000000   0.00000000 270.00000000
-120.17870138   2.06657589   0.00000000   0.00000000 270.00000000
-120.07870138   2.06654643   0.00000000   0.00000000 270.00000000
-119.97870138   2.06651679   0.00000000   0.00000000 270.00000000
-119.87870138   2.06648698   0.00000000   0.00000000 270.00000000
-119.77870138   2.06645699   0.00000000   0.00000000 270.00000000
-119.67870138   2.06642682   0.00000000   0.00000000 270.00000000
-119.57870138   2.06639647   0.00000000   0.00000000 270.00000000
-119.47870138   2.06636594   0.00000000   0.00000000 270.00000000
-119.37870138   2.06633523   0.00000000   0.00000000 270.00000000
-119.27870138   2.06630434   0.00000000   0.00000000 270.00000000
-119.17870138   2.06627326   0.00000000   0.00000000 270.00000000
-119.07870138   2.06624200   0.00000000   0.00000000 270.00000000
-118.97870138   2.06621056   0.00000000   0.00000000 270.00000000
-118.87870138   2.06617892   0.00000000   0.00000000 270.00000000
-118.77870138   2.06614711   0.00000000   0.00000000 270.00000000
-118.67870138   2.06611510   0.00000000   0.00000000 270.00000000
-118.57870138   2.06608291   0.00000000   0.00000000 270.00000000
-118.47870138   2.06605052   0.00000000   0.00000000 270.00000000
-118.37870138   2.06601795   0.00000000   0.00000000 270.00000000
-118.27870138   2.06598518   0.00000000   0.00000000 270.00000000
-118.17870138   2.06595222   0.00000000   0.00000000 270.00000000
-118.07870138   2.06591907   0.00000000   0.00000000 270.00000000
-117.97870138   2.06588573   0.00000000   0.00000000 270.00000000
-117.87870138   2.06585218   0.00000000   0.00000000 270.00000000
-117.77870138   2.06581844   0.00000000   0.00000000 270.00000000
-117.67870138   2.06578451   0.00000000   0.00000000 270.00000000
-117.57870138   2.06575037   0.00000000   0.00000000 270.00000000
-117.47870138   2.06571604   0.00000000   0.00000000 270.00000000
-117.37870138   2.06568150   0.00000000   0.00000000 270.00000000
-117.27870138   2.06564677   0.00000000   0.00000000 270.00000000
-117.17870138   2.06561183   0.00000000   0.00000000 270.00000000
-117.07870138   2.06557669   0.00000000   0.00000000 270.00000000
-116.97870138   2.06554134   0.00000000   0.00000000 270.00000000
-116.87870138   2.06550579   0.00000000   0.00000000 270.00000000
-116.77870138   2.06547003   0.00000000   0.00000000 270.00000000
-116.67870138   2.06543407   0.00000000   0.00000000 270.00000000
-116.57870138   2.06539789   0.00000000   0.00000000 270.00000000
-116.47870138   2.06536151   0.00000000   0.00000000 270.00000000
-116.37870138   2.06532491   0.00000000   0.00000000 270.00000000
-116.27870138   2.06528811   0.00000000   0.00000000 270.00000000
-116.17870138   2.06525109   0.00000000   0.00000000 270.00000000
-116.07870138   2.06521386   0.00000000   0.00000000 270.00000000
-115.97870138   2.06517641   0.00000000   0.00000000 270.00000000
-115.87870138   2.06513875   0.00000000   0.00000000 270.00000000
-115.77870138   2.06510087   0.00000000   0.00000000 270.00000000
-115.67870138   2.06506277   0.00000000   0.00000000 270.00000000
-115.57870138   2.06502445   0.00000000   0.00000000 270.00000000
-115.47870138   2.06498592   0.00000000   0.00000000 270.00000000
-115.37870138   2.06494716   0.00000000   0.00000000 270.00000000
-115.27870138   2.06490818   0.00000000   0.00000000 270.00000000
-115.17870138   2.06486898   0.00000000   0.00000000 270.00000000
-115.07870138   2.06482955   0.00000000   0.00000000 270.00000000
-114.97870138   2.06478990   0.00000000   0.00000000 270.00000000
-114.87870138   2.06475002   0.00000000   0.00000000 270.00000000
-114.77870138   2.06470991   0.00000000   0.00000000 270.00000000
-114.67870138   2.06466957   0.00000000   0.00000000 270.00000000
-114.57870138   2.06462901   0.00000000   0.00000000 270.00000000
-114.47870138   2.06458821   0.00000000   0.00000000 270.00000000
-114.37870138   2.06454718   0.00000000   0.00000000 270.00000000
-114.27870138   2.06450592   0.00000000   0.00000000 270.00000000
-114.17870138   2.06446443   0.00000000   0.00000000 270.00000000
-114.07870138   2.06442269   0.00000000   0.00000000 270.00000000
-113.97870138   2.06438073   0.00000000   0.00000000 270.00000000
-113.87870138   2.06433852   0.00000000   0.00000000 270.00000000
-113.77870138   2.06429608   0.00000000   0.00000000 270.00000000
-113.67870138   2.06425339   0.00000000   0.00000000 270.00000000
-113.57870138   2.06421047   0.00000000   0.00000000 270.00000000
-113.47870138   2.06416730   0.00000000   0.00000000 270.00000000
-113.37870138   2.06412389   0.00000000   0.00000000 270.00000000
-113.27870138   2.06408023   0.00000000   0.00000000 270.00000000
-113.17870138   2.06403633   0.00000000   0.00000000 270.00000000
-113.07870138   2.06399218   0.00000000   0.00000000 270.00000000
-112.97870138   2.06394779   0.00000000   0.00000000 270.00000000
-112.87870138   2.06390314   0.00000000   0.00000000 270.00000000
-112.77870138   2.06385825   0.00000000   0.00000000 270.00000000
-112.67870138   2.06381310   0.00000000   0.00000000 270.00000000
-112.57870138   2.06376770   0.00000000   0.00000000 270.00000000
-112.47870138   2.06372204   0.00000000   0.00000000 270.00000000
-112.37870138   2.06367613   0.00000000   0.00000000 270.00000000
-112.27870138   2.06362997   0.00000000   0.00000000 270.00000000
-112.17870138   2.06358355   0.00000000   0.00000000 270.00000000
-112.07870138   2.06353686   0.00000000   0.00000000 270.00000000
-111.97870138   2.06348992   0.00000000   0.00000000 270.00000000
-111.87870138   2.06344272   0.00000000   0.00000000 270.00000000
-111.77870138   2.06339525   0.00000000   0.00000000 270.00000000
-111.67870138   2.06334752   0.00000000   0.00000000 270.00000000
-111.57870138   2.06329953   0.00000000   0.00000000 270.00000000
-111.47870138   2.06325127   0.00000000   0.00000000 270.00000000
-111.37870138   2.06320274   0.00000000   0.00000000 270.00000000
-111.27870138   2.06315395   0.00000000   0.00000000 270.00000000
-111.17870138   2.06310488   0.00000000   0.00000000 270.00000000
-111.07870138   2.06305555   0.00000000   0.00000000 270.00000000
-110.97870138   2.06300594   0.00000000   0.00000000 270.00000000
-110.87870138   2.06295606   0.00000000   0.00000000 270.00000000
-110.77870138   2.06290590   0.00000000   0.00000000 270.00000000
-110.67870138   2.06285547   0.00000000   0.00000000 270.00000000
-110.57870138   2.06280476   0.00000000   0.00000000 270.00000000
-110.47870138   2.06275377   0.00000000   0.00000000 270.00000000
-110.37870138   2.06270250   0.00000000   0.00000000 270.00000000
-110.27870138   2.06265095   0.00000000   0.00000000 270.00000000
-110.17870138   2.06259912   0.00000000   0.00000000 270.00000000
-110.07870138   2.06254700   0.00000000   0.00000000 270.00000000
-109.97870138   2.06249460   0.00000000   0.00000000 270.00000000
-109.87870138   2.06244191   0.00000000   0.00000000 270.00000000
-109.77870138   2.06238894   0.00000000   0.00000000 270.00000000
-109.67870138   2.06233567   0.00000000   0.00000000 270.00000000
-109.57870138   2.06228212   0.00000000   0.00000000 270.00000000
-109.47870138   2.06222827   0.00000000   0.00000000 270.00000000
-109.37870138   2.06217414   0.00000000   0.00000000 270.00000000
-109.27870138   2.06211970   0.00000000   0.00000000 270.00000000
-109.17870138   2.06206497   0.00000000   0.00000000 270.00000000
-109.07870138   2.06200995   0.00000000   0.00000000 270.00000000
-108.97870138   2.06195463   0.00000000   0.00000000 270.00000000
-108.87870138   2.06189900   0.00000000   0.00000000 270.00000000
-108.77870138   2.06184308   0.00000000   0.00000000 270.00000000
-108.67870138   2.06178685   0.00000000   0.00000000 270.00000000
-108.57870138   2.06173032   0.00000000   0.00000000 270.00000000
-108.47870138   2.06167349   0.00000000   0.00000000 270.00000000
-108.37870138   2.06161635   0.00000000   0.00000000 270.00000000
-108.27870138   2.06155890   0.00000000   0.00000000 270.00000000
-108.17870138   2.06150114   0.00000000   0.00000000 270.00000000
-108.07870138   2.06144308   0.00000000   0.00000000 270.00000000
-107.97870138   2.06138470   0.00000000   0.00000000 270.00000000
-107.87870138   2.06132600   0.00000000   0.00000000 270.00000000
-107.77870138   2.06126700   0.00000000   0.00000000 270.00000000
-107.67870138   2.06120767   0.00000000   0.00000000 270.00000000
-107.57870138   2.06114803   0.00000000   0.00000000 270.00000000
-107.47870138   2.06108808   0.00000000   0.00000000 270.00000000
-107.37870138   2.06102780   0.00000000   0.00000000 270.00000000
-107.27870138   2.06096720   0.00000000   0.00000000 270.00000000
-107.17870138   2.06090627   0.00000000   0.00000000 270.00000000
-107.07870138   2.06084502   0.00000000   0.00000000 270.00000000
-106.97870138   2.06078345   0.00000000   0.00000000 270.00000000
-106.87870138   2.06072155   0.00000000   0.00000000 270.00000000
-106.77870138   2.06065932   0.00000000   0.00000000 270.00000000
-106.67870138   2.06059676   0.00000000   0.00000000 270.00000000
-106.57870138   2.06053387   0.00000000   0.00000000 270.00000000
-106.47870138   2.06047064   0.00000000   0.00000000 270.00000000
-106.37870138   2.06040708   0.00000000   0.00000000 270.00000000
-106.27870138   2.06034319   0.00000000   0.00000000 270.00000000
-106.17870138   2.06027896   0.00000000   0.00000000 270.00000000
-106.07870138   2.06021439   0.00000000   0.00000000 270.00000000
-105.97870138   2.06014948   0.00000000   0.00000000 270.00000000
-105.87870138   2.06008422   0.00000000   0.00000000 270.00000000
-105.77870138   2.06001863   0.00000000   0.00000000 270.00000000
-105.67870138   2.05995269   0.00000000   0.00000000 270.00000000
-105.57870138   2.05988640   0.00000000   0.00000000 270.00000000
-105.47870138   2.05981977   0.00000000   0.00000000 270.00000000
-105.37870138   2.05975278   0.00000000   0.00000000 270.00000000
-105.27870138   2.05968545   0.00000000   0.00000000 270.00000000
-105.17870138   2.05961776   0.00000000   0.00000000 270.00000000
-105.07870138   2.05954972   0.00000000   0.00000000 270.00000000
-104.97870138   2.05948133   0.00000000   0.00000000 270.00000000
-104.87870138   2.05941257   0.00000000   0.00000000 270.00000000
-104.77870138   2.05934346   0.00000000   0.00000000 270.00000000
