# intensity: 0.967937966287989
# background: 2.47568634597738e-09
#           Q (1/A)             dQ (1/A)                    R                   dR               theory              fresnel
  0.0100976750254631 8.94795855025937e-05     0.93124911323173  0.00862415072380786    0.966896247687375    0.868052860497505
  0.0105422083288431 9.26017716694294e-05    0.947038219250378  0.00874612473448181    0.961581029852377    0.385725373107116
  0.0109720593318343 9.56316662455453e-05    0.942354168621822  0.00870015096257847    0.956658744956322    0.213415257951007
  0.0114165619015694 9.87749341458298e-05    0.946147815501342  0.00872741042374874     0.95138458866552     0.14267553554277
  0.0118434829637408 0.000101802681825692     0.94113785878033  0.00869056615801293    0.945485806861274    0.104395496944937
  0.0122879669070244 0.000104963352583564    0.950002422670989  0.00876709131881987    0.938023034909226   0.0789605116001611
  0.0127207692712545 0.000108048445380633    0.948261858536957  0.00873480166214589    0.928975853966391   0.0620145744526998
  0.0131652429699898 0.000111223778253412    0.922049570416205  0.00854949561999018    0.917232463179925   0.0495404436032029
  0.0136009994894266 0.000114343183406141    0.914354083329627  0.00849324673824857    0.902505480145331   0.0404679981973805
   0.014045431278646 0.000117530648781522    0.903133516284981  0.00840696366798832    0.883134991869364   0.0334209837533159
  0.0144841149449348 0.000120682327839588    0.874346399966104   0.0082245978922931    0.858314360937587   0.0280103875418397
  0.0149285960942507 0.000123880747712862    0.838453592857205  0.00794407795677243    0.825606869319083   0.0236701962285097
  0.0153584899380803 0.000126978714203936    0.812734662792899  0.00777372162116445    0.784620509209775   0.0202909225164182
  0.0158058758825064 0.000130207089030339     0.74130477484216  0.00722426888008932    0.729818442627171   0.0174253568733833
  0.0162357520312071 0.000133312999205581     0.67045621613384  0.00671327826880056    0.663350862743162   0.0151564691161533
  0.0166802443563938 0.000136528270739724    0.591525446996473  0.00612721112464954    0.579269201683905    0.013204267887328
  0.0171130411326885 0.000139662318733363    0.475386311041537  0.00523255764363016    0.483753907037056   0.0116092949445828
   0.017560450360179 0.000142905475587019    0.372946012202883  0.00443816910617917    0.376199165531722   0.0102160549371995
  0.0179932322353125 0.000146045583051335    0.267906748090492  0.00358082214890883     0.27306206263486  0.00906911946218546
  0.0184377077966929 0.000149209254178506    0.171668765252974  0.00270715959558421    0.179848439067458  0.00805997622151796
  0.0188646260648966 0.000151801556972429     0.11058454572889  0.00211337857362894    0.112022256933727  0.00722399472474714
  0.0193120259791613 0.000154533594037251   0.0720097300352674  0.00167285249287101    0.068139897613637  0.00646491606796179
  0.0197477731853724 0.000157208795985361    0.061388383689342  0.00153405059584355   0.0501505736905125  0.00582182974526379
  0.0201951861381531  0.00015996959148726   0.0618670039554854  0.00153913410418245   0.0508848428122208   0.0052450425288972
  0.0206309147179127 0.000162671192538097   0.0710467625468238  0.00164739127783172   0.0630597316151537  0.00475215414185568
  0.0210695490241051  0.00016540306052953   0.0881360856284563  0.00185667107189336   0.0806357348204114  0.00431466569859233
  0.0214994288980961 0.000168091752173905    0.105712900714044  0.00207021457418792   0.0987642450036833  0.00393498198584761
  0.0219438672065735 0.000191024916855853    0.114271598341552  0.00119455010819887    0.115276106932036  0.00358998471780003
   0.022826986387372 0.000198723759050931    0.133882521254535  0.00130159723754277    0.137809460326036  0.00300897214570302
  0.0236926041543484 0.000206280972437685    0.142154104482979  0.00134188022251288    0.144431936162791  0.00254903442538006
  0.0245756395161152 0.000213943333204586    0.135284269773611  0.00128523629718637    0.136854441343762  0.00216850323577994
  0.0254470705986023 0.000221703758271679    0.118046843737756  0.00116276930699132       0.118831672014  0.00186116690456937
  0.0263243243098259 0.000229126501304735   0.0922130510145352 0.000983205476991476   0.0944873982935254  0.00160570427349015
  0.0272073857486248 0.000236824829377245    0.069141724126706 0.000817271621782076   0.0682731020252197  0.00139187406425977
  0.0280759036540985 0.000244636988825078   0.0446861819689107 0.000624230371706679   0.0447981941019979   0.0012156772086185
  0.0289560649544001 0.000251971954910976   0.0253876976220391 0.000451518179591262   0.0261882633680047  0.00106501115328842
  0.0298362318426371 0.000259631686068077   0.0136551252278589 0.000322009292374698   0.0140696115636122 0.000937223523089412
  0.0307105109095573 0.000267484313766815  0.00751250936378801 0.000234027142282274  0.00817443926701559 0.000828924592600119
  0.0315906777977943 0.000274945517941933  0.00719943567005599 0.000226433356378762  0.00700311967481618 0.000735406847841459
  0.0324679352343082 0.000282819204045126  0.00758370521811663 0.000205151662514663  0.00868999550832463   0.0006550829060823
  0.0333451293408871 0.000290530053358959   0.0107466877482524 0.000243584764137924   0.0114141004558032 0.000585535924496138
  0.0342194251716137 0.000297859367903768   0.0137013402991662 0.000273661219649434   0.0137882605162636 0.000525245373778502
  0.0350995548069477 0.000305680888721688   0.0158814080025576 0.000293586039348406   0.0150130501778727 0.000472252107675053
  0.0359680019319057 0.000313131412610365   0.0157730181201977  0.00028905394112798   0.0147882909070514 0.000426406149717613
   0.036848146468401 0.000320898964609113   0.0146090652247543 0.000276269208454799   0.0132328584617566 0.000385523449800509
  0.0377136319875717 0.000328581073906534  0.00979029471755316 0.000201360302714875   0.0107858725627346 0.000350025681219751
  0.0385996252298355 0.000336064958535839  0.00757553208024251 0.000174638043004409  0.00785540010204133 0.000317849924339363
  0.0394767932593822 0.000343721171088787  0.00540158150313791 0.000145457947915826  0.00503964766466282 0.000289572438087834
  0.0403481386601925 0.000351336175408717  0.00283433745361905  0.00010373226200909   0.0027221794113529 0.000264551317322765
  0.0412253364920616 0.000358902151028724  0.00128704629684119 6.93355014269003e-05  0.00110681392628681 0.000242051220875899
  0.0421054288744927 0.000366759464370773  0.00040544865594708 3.90646700294597e-05  0.00026874135563991 0.000221841611495102
  0.0429767481982708 0.000374265823618197 0.000256411905247594 3.12555708927451e-05 0.000121525217367676  0.00020388207232577
  0.0438642874360085 0.000381937821992783 0.000504528185814026 2.09669257414046e-05 0.000472291495836688 0.000187427188417368
  0.0447332412004471 0.000389656090610967  0.00103260361610264 3.42615759746028e-05  0.00106878625017674 0.000172901186697052
  0.0456104166805744 0.000396996319571379   0.0016307718067498 4.27651936811048e-05  0.00169944324704872  0.00015964646721201
  0.0464897826313972 0.000404775785562643  0.00223448935078351  4.9621352271978e-05  0.00218234868161777 0.000147614767840365
  0.0473691187798977 0.000412555145529936  0.00243660675347302 5.14398884092591e-05  0.00241022590091406 0.000136700525611372
  0.0482462495565414 0.000420030094266406  0.00237729900579418 5.04832849746871e-05  0.00235496047981287 0.000126804224529549
  0.0491189770400524 0.000427816833237014    0.001769724710851 4.08655526862124e-05  0.00205700207188163 0.000117835126535031
  0.0499983131885529 0.000435469701608782  0.00140454900114673 3.59829926883125e-05  0.00159600709936564 0.000109589257772221
  0.0508732311427593 0.000443001028970592 0.000986610567679581 2.97792191801564e-05  0.00108305440104487 0.000102090649797395
  0.0517459735274315 0.000450760671609349 0.000588773480997378 2.28880204347431e-05 0.000620672798936297 9.52419850612488e-05
  0.0526274517178535  0.00045807665981244 0.000288771996986586 1.60474842404083e-05 0.000286510412031197 8.89001660537469e-05
  0.0535089559853077 0.000465870805770564 0.000159870926504618 1.20131039092111e-05 0.000134392460869143 8.30785700903687e-05
  0.0543794669210911 0.000473601055160108  0.00020266867272996 1.32813695579776e-05 0.000172373788304937  7.7791725226102e-05
   0.055258747190237 0.000481131201869689 0.000424026959550512 1.77925853716899e-05  0.00037377157220256 7.28734274528053e-05
  0.0561380349099636 0.000488909562985035 0.000732091805536619 2.32874376214759e-05 0.000685200351837899 6.83386502381794e-05
  0.0570129118859768 0.000496422168328545   0.0010931797481838  2.8411553650038e-05  0.00103714582201756 6.41725842660021e-05
  0.0578943639993668 0.000503981286620987  0.00135869284659102 3.15531692966417e-05  0.00136581662617384 6.02925041202792e-05
  0.0587779954075813 0.000511929998997927  0.00166414252508605  3.4881433407966e-05  0.00161166310542175 5.66933956496853e-05
  0.0596550591289997  0.00051944423633691  0.00175379568565181  3.5659950691851e-05   0.0017355735272656 5.33832330987414e-05
  0.0605233274400234 0.000527018239980929  0.00183396767123933 3.63519019572081e-05  0.00172656501204814 5.03418155938748e-05
     0.0614003688097 0.000534780354995215  0.00154713803562099 3.14277082230204e-05  0.00159361303491387 4.74871960949382e-05
   0.062277402728796 0.000542091412725664  0.00125724967858225 2.80355469096779e-05  0.00136415331993759 4.48325155141256e-05
   0.063158817589283  0.00054999246479794 0.000997726401314707  2.4721306288123e-05  0.00107636689473949 4.23494053599585e-05
  0.0640402138233185  0.00055767688717241 0.000751487265896993 2.12510654869015e-05 0.000775764230529789 4.00362173363811e-05
  0.0649194270372391 0.000565138392464289 0.000456864705209044 1.63491518830624e-05 0.000503832331056972 3.78842617953321e-05
  0.0657898336648941 0.000573042700514805 0.000291007173557588 1.29833220915659e-05  0.00029261093530269 3.58948593622095e-05
  0.0666624680161476  0.00058055676323067 0.000144507733083991 8.66666510380245e-06  0.00015583448141549 3.40301440623863e-05
  0.0675394311547279 0.000588083312930543 0.000101833999430655 7.27416313944906e-06 9.68853581224357e-05 3.22768907376908e-05
  0.0684208050370217 0.000595875401853738 0.000109339770129026 7.48277474341955e-06 0.000106790159443891 3.06273428453351e-05
  0.0692999586462975 0.000603390235595893 0.000197505751566912 9.95677536607525e-06 0.000166021269647551 2.90857606377201e-05
  0.0701782405376434 0.000610970989148389 0.000293699709126666 1.08161559238738e-05 0.000249881468433876 2.76414990255379e-05
  0.0710429102182388 0.000618644928252258 0.000314817659725223  2.4668309078921e-05 0.000332585101350688 2.63064080669332e-05
  0.0719198510050774 0.000626170959677605 0.000445851817203578 2.92221192186519e-05 0.000396442261486864 2.50339232078499e-05
  0.0727967917919159 0.000633931375764587 0.000438033735692377 2.76863266144777e-05 0.000426808861508661 2.38375917206631e-05
  0.0736737176775932 0.000641457069474327  0.00047157808585938 2.85582267291665e-05 0.000418602712442768 2.27120852671448e-05
  0.0745681747794151 0.000649232766318501 0.000397474395668184 2.61559011223326e-05 0.000373723371876132 2.16317652336608e-05
  0.0754450783133507 0.000656992649376847 0.000305831181595133  2.2850965220598e-05  0.00030358554304043 2.06343122147554e-05
  0.0763219818472862 0.000664518016020624 0.000205801557645289 1.86916980607079e-05 0.000220939960086996 1.96937953689108e-05
  0.0771813243627548 0.000672153768129233 0.000154409644850908 1.61831923369152e-05 0.000141624807799542 1.88236608632843e-05
  0.0780582129955292 0.000679913318352049 9.04659065901447e-05 1.19018995649804e-05 7.47131328659403e-05 1.79849197225405e-05
  0.0789350792765617 0.000687221685847663 3.97715357237387e-05 8.17245397986894e-06 3.05556526938576e-05 1.71924439684978e-05
  0.0798207074403763 0.000695042709469325 1.74146402792219e-05 5.76325998534662e-06 1.28043417211925e-05 1.64359567474712e-05
  0.0806975588202477 0.000702567289054565 3.44626483228305e-05 7.57283374656378e-06 2.03512055469203e-05 1.57275296328562e-05
  0.0815744027495384 0.000710091707532509 6.14549502391355e-05 9.78768321740443e-06 4.71966265222365e-05 1.50569718837743e-05
  0.0824512392282486 0.000717958524291722 0.000117464292884958 1.32082639891367e-05  8.4798203712075e-05 1.44218330174725e-05
  0.0833280608057976 0.000725608756498315  0.00016395570232214 1.54443585583384e-05 0.000123734476193283 1.38198878514476e-05
  0.0842048674821853 0.000733132690026783 0.000180453557118768 1.55812237818113e-05  0.00015547795274194  1.3249069270482e-05
    0.08507289737463  0.00074082897842469 0.000185650721619041 1.56961887211175e-05 0.000173736364493101  1.2712768339079e-05
  0.0859496966004372 0.000748244351944654 0.000192869110843379 1.59773393423753e-05 0.000175990700206921 1.21983633850476e-05
  0.0868264585733414 0.000756002097739825 0.000191908054454346 1.58592796765601e-05 0.000162535420547353 1.17097762817812e-05
  0.0877032354474068 0.000763759744406773 0.000149062705197457 1.39929857239275e-05 0.000136994535431985 1.12454345254292e-05
  0.0885799899697304 0.000771174614259751 0.000119160176616683 1.24885544521643e-05 0.000105129025278885   1.080392401441e-05
  0.0894567370414734 0.000779040073475705 9.09775615286178e-05 1.04647523223046e-05 7.36040486471596e-05 1.03839211950652e-05
  0.0903422459959984  0.00078653452335277 7.04351275968331e-05 9.23991341016138e-06 4.84900419738507e-05 9.98024788640351e-06
  0.0912189707159996 0.000794165225219649 3.82946927841156e-05 6.91568752076741e-06 3.50927104761716e-05 9.59974419182189e-06
  0.0920956805348396 0.000801921955857266 2.78505261134124e-05 5.93855248593272e-06 3.56059433918999e-05 9.23724172981875e-06
  0.0929723829030991 0.000809335964945284 5.21022136985373e-05 7.84844661828113e-06 4.99191998225277e-05 8.89171461279505e-06
  0.0938490852713585 0.000817092341801329 7.60938812604537e-05 9.35472443832366e-06 7.55256364196455e-05 8.56222102764331e-06
  0.0947257727384568 0.000824956755440019 7.87563110564165e-05 9.45780481611336e-06 0.000108063165765414 8.24787609579317e-06
  0.0956024304032326 0.000832370122225134 0.000132080257069999   1.171600593266e-05 0.000142175275953541 7.94784584345326e-06
  0.0964703261852264 0.000840064031323786 0.000156083551060735 1.26587991173331e-05 0.000172183984883134 7.66416098003294e-06
  0.0973469614982605 0.000847477074380011 0.000192056255180765 1.39778712258177e-05 0.000194157180794847 7.39037155108143e-06
  0.0982236117124558 0.000855124323642849 0.000198513154188767 1.41489329512934e-05 0.000204684276046098 7.12871182050359e-06
  0.0991002172231674 0.000862987699147389 0.000179966265750087 1.34128870487093e-05 0.000202571285961428 6.87856051698801e-06
  0.0999768376350403 0.000870400156478637  0.00016346071748318 1.27532466832207e-05 0.000188562172441743 6.63929429807079e-06
   0.100853428244591  0.00087815495752589  0.00015368719281497 1.19493380567617e-05 0.000165039396588601 6.41036793843811e-06
   0.101738780736923 0.000885863233723654 0.000131353433577323 1.10348722428501e-05  0.00013523161615125 6.18909273565364e-06
   0.102615356445312 0.000893275220422789 8.17252243948509e-05 8.70950368052169e-06 0.000103784904987934 5.97934293930688e-06
    0.10349190980196 0.000901029341146389 7.95417140126893e-05 8.56708399888852e-06 7.42707947944826e-05 5.77842704107332e-06
   0.104368470609188 0.000908765396030782 3.80010495833143e-05 5.97442753247328e-06 4.97801671216079e-05 5.58588744627325e-06
   0.105245001614094 0.000916302845745748 3.34080622262107e-05 5.60645377152658e-06 3.22607115780037e-05 5.40131645097894e-06
   0.106121525168419  0.00092405637597025 2.77124818368399e-05  5.1224138761382e-06 2.23565394252155e-05 5.22431974519503e-06
    0.10698926448822 0.000931297316063017 1.33739965544734e-05 3.55440003922034e-06 1.94597627309693e-05 5.05618512804645e-06
   0.107874527573586 0.000939094247716413 2.28008212755051e-05 4.49699571935825e-06 2.19888177928142e-05 4.89158729486536e-06
   0.108742244541645 0.000946785311014563 2.08609809428127e-05 4.31517736269315e-06 2.76860179954312e-05 4.73671410883533e-06
   0.109618715941906 0.000954195621819516  2.6071156980143e-05 4.76781272119242e-06 3.43444315403942e-05 4.58645114972219e-06
   0.110495172441006 0.000961948029016448 3.43214691508308e-05 5.40214617521587e-06 3.98454481319878e-05 4.44211371659152e-06
   0.111371606588364 0.000969700260590969 3.79650140371209e-05 5.66504401472248e-06 4.26902616590097e-05  4.3034219033997e-06
   0.112256810069084 0.000977171752561482 2.58000497470681e-05 4.74720521127102e-06 4.21242034664937e-05 4.16879727521622e-06
   0.113141991198063 0.000985093529094203 3.23477694659857e-05 5.25225740810336e-06 3.81623105394271e-05 4.03940657149415e-06
   0.114018388092518 0.000992628805360403 2.05137797660455e-05 4.12821785633081e-06  3.1644240718242e-05  3.9162119343196e-06
   0.114894777536392  0.00100014591858546 2.86433738757027e-05 4.75074785201616e-06 2.37407728875703e-05 3.79768643074337e-06
   0.115771144628525  0.00100789699219947 1.51329680179255e-05 3.60461942426952e-06 1.58248193109308e-05 3.68362212566685e-06
   0.116647519171238  0.00101541369914175 7.98850465172275e-06 2.81873537415311e-06 9.16528759645603e-06  3.5738110471795e-06
   0.117523863911629  0.00102305626770995 9.23432034293212e-06 2.96524560148011e-06 4.70101880382265e-06  3.4680708290119e-06
   0.118382669985294  0.00103068298194799 5.64181082697015e-06 2.51295218534107e-06 2.90419364145445e-06 3.36822135301985e-06
   0.119258977472782  0.00103819891712789 1.02703703725521e-05 3.08210516928832e-06 3.64642272814428e-06 3.27002015934842e-06
    0.12013528496027  0.00104594888367646 1.27652537336384e-05 3.34753194662427e-06 6.47773269544666e-06  3.1753776983692e-06
   0.121011562645435  0.00105346433856415 1.46099499888479e-05 3.53645805989152e-06 1.05554515787668e-05 3.08414063212506e-06
   0.121887840330601  0.00106110561179863 2.55395619199694e-05 4.44208821147479e-06 1.48971859106997e-05 2.99616199572084e-06
   0.122764103114605  0.00106885484523493 2.01072248285973e-05 4.03195498326807e-06 1.85726648062546e-05 2.91130532733852e-06
   0.123640343546867   0.0010761534389457  2.9906127845852e-05 4.46235459753822e-06 2.08774172276864e-05 2.82943573308971e-06
   0.124516569077969   0.0010840101714109 2.21695892734605e-05  3.8828736180684e-06 2.14437730099798e-05 2.75043163689371e-06
   0.125392779707909   0.0010916505851846 2.61679968313305e-05 4.14184396565624e-06 2.02933758178156e-05 2.67417049761162e-06
   0.126268982887268  0.00109905656516266 2.15493856124721e-05 3.78008244099132e-06  1.7801719864305e-05 2.60053805914618e-06
   0.127145171165466   0.0011069125630896 1.45802751789359e-05 3.17066201406761e-06 1.46073067238431e-05 2.52942922897647e-06
   0.128021329641342  0.00111453413468838 8.89877707366889e-06   2.580895396889e-06 1.14785218422471e-05 2.46073966542654e-06
   0.128897488117218   0.0011219573782649 1.24276053926695e-05 2.93039538925548e-06 9.16026771915184e-06 2.39436907799713e-06
   0.129773616790771  0.00112981260211824 1.35845397919506e-05 3.02111942469229e-06 8.23952979898124e-06 2.33022772143381e-06
   0.130649745464325  0.00113732539427272 2.14097075743643e-05 3.65894558995767e-06 9.03789795728437e-06 2.26822274629771e-06
   0.131525844335556  0.00114496392936325 1.19872705511626e-05 2.84125616897436e-06 1.15670107021209e-05 2.20827231852556e-06
   0.132401943206787  0.00115269233027195 1.57086392555461e-05 3.16244582280388e-06 1.55311293473745e-05 2.15029326295331e-06
   0.133277997374535   0.0011601142303092 2.23035168900952e-05 3.68805291945022e-06 2.03872023454743e-05 2.09420924462858e-06
   0.134162828326225  0.00116779588434973 2.82642093331064e-05   3.944075672574e-06 2.54942112048646e-05  2.0394129708317e-06
    0.13503885269165  0.00117543342882649 3.61908087897952e-05 4.41490838670224e-06 3.00238777036209e-05 1.98691742472805e-06
