#      z (A) rho (1e-6/A2) irho (1e-6/A2) rhoM (1e-6/A2) theta (degrees)
-128.35177642   2.06941931   0.00000000   0.00000000 270.00000000
-128.25177642   2.06940714   0.00000000   0.00000000 270.00000000
-128.15177642   2.06939488   0.00000000   0.00000000 270.00000000
-128.05177642   2.06938254   0.00000000   0.00000000 270.00000000
-127.95177642   2.06937011   0.00000000   0.00000000 270.00000000
-127.85177642   2.06935759   0.00000000   0.00000000 270.00000000
-127.75177642   2.06934499   0.00000000   0.00000000 270.00000000
-127.65177642   2.06933229   0.00000000   0.00000000 270.00000000
-127.55177642   2.06931951   0.00000000   0.00000000 270.00000000
-127.45177642   2.06930664   0.00000000   0.00000000 270.00000000
-127.35177642   2.06929368   0.00000000   0.00000000 270.00000000
-127.25177642   2.06928062   0.00000000   0.00000000 270.00000000
-127.15177642   2.06926748   0.00000000   0.00000000 270.00000000
-127.05177642   2.06925424   0.00000000   0.00000000 270.00000000
-126.95177642   2.06924092   0.00000000   0.00000000 270.00000000
-126.85177642   2.06922750   0.00000000   0.00000000 270.00000000
-126.75177642   2.06921398   0.00000000   0.00000000 270.00000000
-126.65177642   2.06920038   0.00000000   0.00000000 270.00000000
-126.55177642   2.06918667   0.00000000   0.00000000 270.00000000
-126.45177642   2.06917288   0.00000000   0.00000000 270.00000000
-126.35177642   2.06915898   0.00000000   0.00000000 270.00000000
-126.25177642   2.06914500   0.00000000   0.00000000 270.00000000
-126.15177642   2.06913091   0.00000000   0.00000000 270.00000000
-126.05177642   2.06911673   0.00000000   0.00000000 270.00000000
-125.95177642   2.06910245   0.00000000   0.00000000 270.00000000
-125.85177642   2.06908807   0.00000000   0.00000000 270.00000000
-125.75177642   2.06907359   0.00000000   0.00000000 270.00000000
-125.65177642   2.06905901   0.00000000   0.00000000 270.00000000
-125.55177642   2.06904433   0.00000000   0.00000000 270.00000000
-125.45177642   2.06902955   0.00000000   0.00000000 270.00000000
-125.35177642   2.06901467   0.00000000   0.00000000 270.00000000
-125.25177642   2.06899968   0.00000000   0.00000000 270.00000000
-125.15177642   2.06898460   0.00000000   0.00000000 270.00000000
-125.05177642   2.06896941   0.00000000   0.00000000 270.00000000
-124.95177642   2.06895411   0.00000000   0.00000000 270.00000000
-124.85177642   2.06893871   0.00000000   0.00000000 270.00000000
-124.75177642   2.06892321   0.00000000   0.00000000 270.00000000
-124.65177642   2.06890760   0.00000000   0.00000000 270.00000000
-124.55177642   2.06889188   0.00000000   0.00000000 270.00000000
-124.45177642   2.06887606   0.00000000   0.00000000 270.00000000
-124.35177642   2.06886012   0.00000000   0.00000000 270.00000000
-124.25177642   2.06884408   0.00000000   0.00000000 270.00000000
-124.15177642   2.06882793   0.00000000   0.00000000 270.00000000
-124.05177642   2.06881167   0.00000000   0.00000000 270.00000000
-123.95177642   2.06879530   0.00000000   0.00000000 270.00000000
-123.85177642   2.06877882   0.00000000   0.00000000 270.00000000
-123.75177642   2.06876222   0.00000000   0.00000000 270.00000000
-123.65177642   2.06874552   0.00000000   0.00000000 270.00000000
-123.55177642   2.06872870   0.00000000   0.00000000 270.00000000
-123.45177642   2.06871176   0.00000000   0.00000000 270.00000000
-123.35177642   2.06869472   0.00000000   0.00000000 270.00000000
-123.25177642   2.06867755   0.00000000   0.00000000 270.00000000
-123.15177642   2.06866027   0.00000000   0.00000000 270.00000000
-123.05177642   2.06864288   0.00000000   0.00000000 270.00000000
-122.95177642   2.06862536   0.00000000   0.00000000 270.00000000
-122.85177642   2.06860773   0.00000000   0.00000000 270.00000000
-122.75177642   2.06858998   0.00000000   0.00000000 270.00000000
-122.65177642   2.06857211   0.00000000   0.00000000 270.00000000
-122.55177642   2.06855412   0.00000000   0.00000000 270.00000000
-122.45177642   2.06853601   0.00000000   0.00000000 270.00000000
-122.35177642   2.06851778   0.00000000   0.00000000 270.00000000
-122.25177642   2.06849942   0.00000000   0.00000000 270.00000000
-122.15177642   2.06848095   0.00000000   0.00000000 270.00000000
-122.05177642   2.06846234   0.00000000   0.00000000 270.00000000
-121.95177642   2.06844362   0.00000000   0.00000000 270.00000000
-121.85177642   2.06842477   0.00000000   0.00000000 270.00000000
-121.75177642   2.06840579   0.00000000   0.00000000 270.00000000
-121.65177642   2.06838669   0.00000000   0.00000000 270.00000000
-121.55177642   2.06836746   0.00000000   0.00000000 270.00000000
-121.45177642   2.06834810   0.00000000   0.00000000 270.00000000
-121.35177642   2.06832861   0.00000000   0.00000000 270.00000000
-121.25177642   2.06830899   0.00000000   0.00000000 270.00000000
-121.15177642   2.06828924   0.00000000   0.00000000 270.00000000
-121.05177642   2.06826936   0.00000000   0.00000000 270.00000000
-120.95177642   2.06824935   0.00000000   0.00000000 270.00000000
-120.85177642   2.06822921   0.00000000   0.00000000 270.00000000
-120.75177642   2.06820893   0.00000000   0.00000000 270.00000000
-120.65177642   2.06818852   0.00000000   0.00000000 270.00000000
-120.55177642   2.06816798   0.00000000   0.00000000 270.00000000
-120.45177642   2.06814729   0.00000000   0.00000000 270.00000000
-120.35177642   2.06812647   0.00000000   0.00000000 270.00000000
-120.25177642   2.06810552   0.00000000   0.00000000 270.00000000
-120.15177642   2.06808442   0.00000000   0.00000000 270.00000000
-120.05177642   2.06806319   0.00000000   0.00000000 270.00000000
-119.95177642   2.06804182   0.00000000   0.00000000 270.00000000
-119.85177642   2.06802031   0.00000000   0.00000000 270.00000000
-119.75177642   2.06799865   0.00000000   0.00000000 270.00000000
-119.65177642   2.06797686   0.00000000   0.00000000 270.00000000
-119.55177642   2.06795492   0.00000000   0.00000000 270.00000000
-119.45177642   2.06793283   0.00000000   0.00000000 270.00000000
-119.35177642   2.06791060   0.00000000   0.00000000 270.00000000
-119.25177642   2.06788823   0.00000000   0.00000000 270.00000000
-119.15177642   2.06786571   0.00000000   0.00000000 270.00000000
-119.05177642   2.06784304   0.00000000   0.00000000 270.00000000
-118.95177642   2.06782023   0.00000000   0.00000000 270.00000000
-118.85177642   2.06779727   0.00000000   0.00000000 270.00000000
-118.75177642   2.06777415   0.00000000   0.00000000 270.00000000
-118.65177642   2.06775089   0.00000000   0.00000000 270.00000000
-118.55177642   2.06772748   0.00000000   0.00000000 270.00000000
-118.45177642   2.06770391   0.00000000   0.00000000 270.00000000
-118.35177642   2.06768019   0.00000000   0.00000000 270.00000000
-118.25177642   2.06765632   0.00000000   0.00000000 270.00000000
-118.15177642   2.06763229   0.00000000   0.00000000 270.00000000
-118.05177642   2.06760810   0.00000000   0.00000000 270.00000000
-117.95177642   2.06758376   0.00000000   0.00000000 270.00000000
-117.85177642   2.06755927   0.00000000   0.00000000 270.00000000
-117.75177642   2.06753461   0.00000000   0.00000000 270.00000000
-117.65177642   2.06750980   0.00000000   0.00000000 270.00000000
-117.55177642   2.06748482   0.00000000   0.00000000 270.00000000
-117.45177642   2.06745968   0.00000000   0.00000000 270.00000000
-117.35177642   2.06743439   0.00000000   0.00000000 270.00000000
-117.25177642   2.06740893   0.00000000   0.00000000 270.00000000
-117.15177642   2.06738330   0.00000000   0.00000000 270.00000000
-117.05177642   2.06735751   0.00000000   0.00000000 270.00000000
-116.95177642   2.06733156   0.00000000   0.00000000 270.00000000
-116.85177642   2.06730544   0.00000000   0.00000000 270.00000000
-116.75177642   2.06727915   0.00000000   0.00000000 270.00000000
-116.65177642   2.06725270   0.00000000   0.00000000 270.00000000
-116.55177642   2.06722607   0.00000000   0.00000000 270.00000000
-116.45177642   2.06719928   0.00000000   0.00000000 270.00000000
-116.35177642   2.06717231   0.00000000   0.00000000 270.00000000
-116.25177642   2.06714517   0.00000000   0.00000000 270.00000000
-116.15177642   2.06711786   0.00000000   0.00000000 270.00000000
-116.05177642   2.06709038   0.00000000   0.00000000 270.00000000
-115.95177642   2.06706272   0.00000000   0.00000000 270.00000000
-115.85177642   2.06703488   0.00000000   0.00000000 270.00000000
-115.75177642   2.06700687   0.00000000   0.00000000 270.00000000
-115.65177642   2.06697868   0.00000000   0.00000000 270.00000000
-115.55177642   2.06695031   0.00000000   0.00000000 270.00000000
-115.45177642   2.06692176   0.00000000   0.00000000 270.00000000
-115.35177642   2.06689303   0.00000000   0.00000000 270.00000000
-115.25177642   2.06686412   0.00000000   0.00000000 270.00000000
-115.15177642   2.06683503   0.00000000   0.00000000 270.00000000
-115.05177642   2.06680575   0.00000000   0.00000000 270.00000000
-114.95177642   2.06677629   0.00000000   0.00000000 270.00000000
-114.85177642   2.06674665   0.00000000   0.00000000 270.00000000
-114.75177642   2.06671681   0.00000000   0.00000000 270.00000000
-114.65177642   2.06668679   0.00000000   0.00000000 270.00000000
-114.55177642   2.06665658   0.00000000   0.00000000 270.00000000
-114.45177642   2.06662618   0.00000000   0.00000000 270.00000000
-114.35177642   2.06659559   0.00000000   0.00000000 270.00000000
-114.25177642   2.06656481   0.00000000   0.00000000 270.00000000
-114.15177642   2.06653384   0.00000000   0.00000000 270.00000000
-114.05177642   2.06650267   0.00000000   0.00000000 270.00000000
-113.95177642   2.06647131   0.00000000   0.00000000 270.00000000
-113.85177642   2.06643975   0.00000000   0.00000000 270.00000000
-113.75177642   2.06640799   0.00000000   0.00000000 270.00000000
-113.65177642   2.06637604   0.00000000   0.00000000 270.00000000
-113.55177642   2.06634389   0.00000000   0.00000000 270.00000000
-113.45177642   2.06631153   0.00000000   0.00000000 270.00000000
-113.35177642   2.06627898   0.00000000   0.00000000 270.00000000
-113.25177642   2.06624622   0.00000000   0.00000000 270.00000000
-113.15177642   2.06621326   0.00000000   0.00000000 270.00000000
-113.05177642   2.06618010   0.00000000   0.00000000 270.00000000
-112.95177642   2.06614673   0.00000000   0.00000000 270.00000000
-112.85177642   2.06611315   0.00000000   0.00000000 270.00000000
-112.75177642   2.06607937   0.00000000   0.00000000 270.00000000
-112.65177642   2.06604538   0.00000000   0.00000000 270.00000000
-112.55177642   2.06601118   0.00000000   0.00000000 270.00000000
-112.45177642   2.06597676   0.00000000   0.00000000 270.00000000
-112.35177642   2.06594214   0.00000000   0.00000000 270.00000000
-112.25177642   2.06590730   0.00000000   0.00000000 270.00000000
-112.15177642   2.06587225   0.00000000   0.00000000 270.00000000
-112.05177642   2.06583698   0.00000000   0.00000000 270.00000000
-111.95177642   2.06580150   0.00000000   0.00000000 270.00000000
-111.85177642   2.06576579   0.00000000   0.00000000 270.00000000
-111.75177642   2.06572987   0.00000000   0.00000000 270.00000000
-111.65177642   2.06569373   0.00000000   0.00000000 270.00000000
-111.55177642   2.06565737   0.00000000   0.00000000 270.00000000
-111.45177642   2.06562079   0.00000000   0.00000000 270.00000000
-111.35177642   2.06558398   0.00000000   0.00000000 270.00000000
-111.25177642   2.06554695   0.00000000   0.00000000 270.00000000
-111.15177642   2.06550969   0.00000000   0.00000000 270.00000000
-111.05177642   2.06547220   0.00000000   0.00000000 270.00000000
-110.95177642   2.06543449   0.00000000   0.00000000 270.00000000
-110.85177642   2.06539655   0.00000000   0.00000000 270.00000000
-110.75177642   2.06535837   0.00000000   0.00000000 270.00000000
-110.65177642   2.06531997   0.00000000   0.00000000 270.00000000
-110.55177642   2.06528133   0.00000000   0.00000000 270.00000000
-110.45177642   2.06524246   0.00000000   0.00000000 270.00000000
-110.35177642   2.06520335   0.00000000   0.00000000 270.00000000
-110.25177642   2.06516401   0.00000000   0.00000000 270.00000000
-110.15177642   2.06512443   0.00000000   0.00000000 270.00000000
-110.05177642   2.06508461   0.00000000   0.00000000 270.00000000
-109.95177642   2.06504455   0.00000000   0.00000000 270.00000000
-109.85177642   2.06500425   0.00000000   0.00000000 270.00000000
-109.75177642   2.06496371   0.00000000   0.00000000 270.00000000
-109.65177642   2.06492292   0.00000000   0.00000000 270.00000000
-109.55177642   2.06488188   0.00000000   0.00000000 270.00000000
-109.45177642   2.06484061   0.00000000   0.00000000 270.00000000
-109.35177642   2.06479908   0.00000000   0.00000000 270.00000000
-109.25177642   2.06475730   0.00000000   0.00000000 270.00000000
-109.15177642   2.06471528   0.00000000   0.00000000 270.00000000
-109.05177642   2.06467300   0.00000000   0.00000000 270.00000000
-108.95177642   2.06463047   0.00000000   0.00000000 270.00000000
-108.85177642   2.06458769   0.00000000   0.00000000 270.00000000
-108.75177642   2.06454465   0.00000000   0.00000000 270.00000000
-108.65177642   2.06450135   0.00000000   0.00000000 270.00000000
-108.55177642   2.06445780   0.00000000   0.00000000 270.00000000
-108.45177642   2.06441399   0.00000000   0.00000000 270.00000000
-108.35177642   2.06436992   0.00000000   0.00000000 270.00000000
-108.25177642   2.06432558   0.00000000   0.00000000 270.00000000
-108.15177642   2.06428099   0.00000000   0.00000000 270.00000000
-108.05177642   2.06423613   0.00000000   0.00000000 270.00000000
-107.95177642   2.06419100   0.00000000   0.00000000 270.00000000
-107.85177642   2.06414561   0.00000000   0.00000000 270.00000000
-107.75177642   2.06409994   0.00000000   0.00000000 270.00000000
-107.65177642   2.06405401   0.00000000   0.00000000 270.00000000
-107.55177642   2.06400781   0.00000000   0.00000000 270.00000000
-107.45177642   2.06396134   0.00000000   0.00000000 270.00000000
-107.35177642   2.06391459   0.00000000   0.00000000 270.00000000
-107.25177642   2.06386756   0.00000000   0.00000000 270.00000000
-107.15177642   2.06382026   0.00000000   0.00000000 270.00000000
-107.05177642   2.06377269   0.00000000   0.00000000 270.00000000
-106.95177642   2.06372483   0.00000000   0.00000000 270.00000000
-106.85177642   2.06367669   0.00000000   0.00000000 270.00000000
-106.75177642   2.06362828   0.00000000   0.00000000 270.00000000
-106.65177642   2.06357957   0.00000000   0.00000000 270.00000000
-106.55177642   2.06353059   0.00000000   0.00000000 270.00000000
-106.45177642   2.06348132   0.00000000   0.00000000 270.00000000
-106.35177642   2.06343176   0.00000000   0.00000000 270.00000000
-106.25177642   2.06338191   0.00000000   0.00000000 270.00000000
-106.15177642   2.06333177   0.00000000   0.00000000 270.00000000
-106.05177642   2.06328134   0.00000000   0.00000000 270.00000000
-105.95177642   2.06323061   0.00000000   0.00000000 270.00000000
-105.85177642   2.06317960   0.00000000   0.00000000 270.00000000
-105.75177642   2.06312828   0.00000000   0.00000000 270.00000000
-105.65177642   2.06307667   0.00000000   0.00000000 270.00000000
-105.55177642   2.06302476   0.00000000   0.00000000 270.00000000
-105.45177642   2.06297255   0.00000000   0.00000000 270.00000000
-105.35177642   2.06292004   0.00000000   0.00000000 270.00000000
-105.25177642   2.06286723   0.00000000   0.00000000 270.00000000
-105.15177642   2.06281411   0.00000000   0.00000000 270.00000000
-105.05177642   2.06276068   0.00000000   0.00000000 270.00000000
-104.95177642   2.06270695   0.00000000   0.00000000 270.00000000
-104.85177642   2.06265291   0.00000000   0.00000000 270.00000000
-104.75177642   2.06259856   0.00000000   0.00000000 270.00000000
-104.65177642   2.06254389   0.00000000   0.00000000 270.00000000
-104.55177642   2.06248891   0.00000000   0.00000000 270.00000000
-104.45177642   2.06243362   0.00000000   0.00000000 270.00000000
-104.35177642   2.06237801   0.00000000   0.00000000 270.00000000
-104.25177642   2.06232209   0.00000000   0.00000000 270.00000000
-104.15177642   2.06226584   0.00000000   0.00000000 270.00000000
-104.05177642   2.06220927   0.00000000   0.00000000 270.00000000
-103.95177642   2.06215238   0.00000000   0.00000000 270.00000000
-103.85177642   2.06209517   0.00000000   0.00000000 270.00000000
-103.75177642   2.06203763   0.00000000   0.00000000 270.00000000
-103.65177642   2.06197976   0.00000000   0.00000000 270.00000000
-103.55177642   2.06192157   0.00000000   0.00000000 270.00000000
-103.45177642   2.06186304   0.00000000   0.00000000 270.00000000
-103.35177642   2.06180419   0.00000000   0.00000000 270.00000000
-103.25177642   2.06174500   0.00000000   0.00000000 270.00000000
-103.15177642   2.06168547   0.00000000   0.00000000 270.00000000
-103.05177642   2.06162561   0.00000000   0.00000000 270.00000000
-102.95177642   2.06156541   0.00000000   0.00000000 270.00000000
-102.85177642   2.06150487   0.00000000   0.00000000 270.00000000
-102.75177642   2.06144399   0.00000000   0.00000000 270.00000000
-102.65177642   2.06138277   0.00000000   0.00000000 270.00000000
-102.55177642   2.06132121   0.00000000   0.00000000 270.00000000
-102.45177642   2.06125929   0.00000000   0.00000000 270.00000000
-102.35177642   2.06119703   0.00000000   0.00000000 270.00000000
-102.25177642   2.06113442   0.00000000   0.00000000 270.00000000
-102.15177642   2.06107146   0.00000000   0.00000000 270.00000000
-102.05177642   2.06100815   0.00000000   0.00000000 270.00000000
-101.95177642   2.06094448   0.00000000   0.00000000 270.00000000
-101.85177642   2.06088046   0.00000000   0.00000000 270.00000000
-101.75177642   2.06081608   0.00000000   0.00000000 270.00000000
-101.65177642   2.06075135   0.00000000   0.00000000 270.00000000
-101.55177642   2.06068625   0.00000000   0.00000000 270.00000000
-101.45177642   2.06062079   0.00000000   0.00000000 270.00000000
-101.35177642   2.06055496   0.00000000   0.00000000 270.00000000
-101.25177642   2.06048877   0.00000000   0.00000000 270.00000000
-101.15177642   2.06042222   0.00000000   0.00000000 270.00000000
-101.05177642   2.06035529   0.00000000   0.00000000 270.00000000
-100.95177642   2.06028799   0.00000000   0.00000000 270.00000000
-100.85177642   2.06022032   0.00000000   0.00000000 270.00000000
-100.75177642   2.06015228   0.00000000   0.00000000 270.00000000
-100.65177642   2.06008386   0.00000000   0.00000000 270.00000000
-100.55177642   2.06001507   0.00000000   0.00000000 270.00000000
-100.45177642   2.05994590   0.00000000   0.00000000 270.00000000
-100.35177642   2.05987634   0.00000000   0.00000000 270.00000000
-100.25177642   2.05980640   0.00000000   0.00000000 270.00000000
-100.15177642   2.05973608   0.00000000   0.00000000 270.00000000
-100.05177642   2.05966538   0.00000000   0.00000000 270.00000000
-99.95177642   2.05959428   0.00000000   0.00000000 270.00000000
-99.85177642   2.05952280   0.00000000   0.00000000 270.00000000
-99.75177642   2.05945092   0.00000000   0.00000000 270.00000000
-99.65177642   2.05937865   0.00000000   0.00000000 270.00000000
-99.55177642   2.05930599   0.00000000   0.00000000 270.00000000
-99.45177642   2.05923293   0.00000000   0.00000000 270.00000000
-99.35177642   2.05915948   0.00000000   0.00000000 270.00000000
-99.25177642   2.05908562   0.00000000   0.00000000 270.00000000
-99.15177642   2.05901136   0.00000000   0.00000000 270.00000000
-99.05177642   2.05893670   0.00000000   0.00000000 270.00000000
-98.95177642   2.05886164   0.00000000   0.00000000 270.00000000
-98.85177642   2.05878616   0.00000000   0.00000000 270.00000000
-98.75177642   2.05871028   0.00000000   0.00000000 270.00000000
-98.65177642   2.05863399   0.00000000   0.00000000 270.00000000
-98.55177642   2.05855729   0.00000000   0.00000000 270.00000000
-98.45177642   2.05848017   0.00000000   0.00000000 270.00000000
-98.35177642   2.05840263   0.00000000   0.00000000 270.00000000
-98.25177642   2.05832468   0.00000000   0.00000000 270.00000000
