#      z (A) rho (1e-6/A2) irho (1e-6/A2)
-56.62035282  20.08863784   0.46796606
-56.52035282  20.08896464   0.46814080
-56.42035282  20.08929666   0.46831835
-56.32035282  20.08963399   0.46849872
-56.22035282  20.08997670   0.46868197
-56.12035282  20.09032485   0.46886814
-56.02035282  20.09067854   0.46905726
-55.92035282  20.09103783   0.46924938
-55.82035282  20.09140280   0.46944454
-55.72035282  20.09177354   0.46964279
-55.62035282  20.09215013   0.46984415
-55.52035282  20.09253264   0.47004869
-55.42035282  20.09292116   0.47025644
-55.32035282  20.09331577   0.47046745
-55.22035282  20.09371656   0.47068176
-55.12035282  20.09412361   0.47089942
-55.02035282  20.09453700   0.47112047
-54.92035282  20.09495684   0.47134496
-54.82035282  20.09538319   0.47157295
-54.72035282  20.09581616   0.47180446
-54.62035282  20.09625583   0.47203956
-54.52035282  20.09670230   0.47227830
-54.42035282  20.09715565   0.47252072
-54.32035282  20.09761598   0.47276686
-54.22035282  20.09808338   0.47301679
-54.12035282  20.09855795   0.47327056
-54.02035282  20.09903979   0.47352821
-53.92035282  20.09952899   0.47378979
-53.82035282  20.10002565   0.47405537
-53.72035282  20.10052988   0.47432499
-53.62035282  20.10104176   0.47459871
-53.52035282  20.10156141   0.47487657
-53.42035282  20.10208893   0.47515865
-53.32035282  20.10262441   0.47544498
-53.22035282  20.10316798   0.47573564
-53.12035282  20.10371972   0.47603067
-53.02035282  20.10427976   0.47633013
-52.92035282  20.10484819   0.47663408
-52.82035282  20.10542513   0.47694259
-52.72035282  20.10601069   0.47725570
-52.62035282  20.10660498   0.47757348
-52.52035282  20.10720811   0.47789599
-52.42035282  20.10782021   0.47822329
-52.32035282  20.10844138   0.47855544
-52.22035282  20.10907173   0.47889251
-52.12035282  20.10971140   0.47923455
-52.02035282  20.11036050   0.47958164
-51.92035282  20.11101914   0.47993383
-51.82035282  20.11168746   0.48029119
-51.72035282  20.11236557   0.48065379
-51.62035282  20.11305360   0.48102170
-51.52035282  20.11375167   0.48139497
-51.42035282  20.11445991   0.48177368
-51.32035282  20.11517845   0.48215790
-51.22035282  20.11590741   0.48254769
-51.12035282  20.11664694   0.48294313
-51.02035282  20.11739715   0.48334429
-50.92035282  20.11815819   0.48375123
-50.82035282  20.11893018   0.48416403
-50.72035282  20.11971327   0.48458277
-50.62035282  20.12050758   0.48500750
-50.52035282  20.12131327   0.48543832
-50.42035282  20.12213046   0.48587529
-50.32035282  20.12295931   0.48631849
-50.22035282  20.12379994   0.48676800
-50.12035282  20.12465251   0.48722389
-50.02035282  20.12551716   0.48768623
-49.92035282  20.12639404   0.48815512
-49.82035282  20.12728329   0.48863062
-49.72035282  20.12818507   0.48911283
-49.62035282  20.12909953   0.48960180
-49.52035282  20.13002681   0.49009764
-49.42035282  20.13096707   0.49060042
-49.32035282  20.13192047   0.49111022
-49.22035282  20.13288716   0.49162714
-49.12035282  20.13386731   0.49215124
-49.02035282  20.13486106   0.49268262
-48.92035282  20.13586858   0.49322136
-48.82035282  20.13689003   0.49376756
-48.72035282  20.13792559   0.49432129
-48.62035282  20.13897540   0.49488265
-48.52035282  20.14003964   0.49545172
-48.42035282  20.14111847   0.49602859
-48.32035282  20.14221207   0.49661337
-48.22035282  20.14332061   0.49720612
-48.12035282  20.14444425   0.49780696
-48.02035282  20.14558318   0.49841597
-47.92035282  20.14673756   0.49903324
-47.82035282  20.14790758   0.49965888
-47.72035282  20.14909341   0.50029297
-47.62035282  20.15029524   0.50093561
-47.52035282  20.15151324   0.50158690
-47.42035282  20.15274760   0.50224694
-47.32035282  20.15399850   0.50291582
-47.22035282  20.15526612   0.50359365
-47.12035282  20.15655067   0.50428053
-47.02035282  20.15785232   0.50497655
-46.92035282  20.15917127   0.50568182
-46.82035282  20.16050770   0.50639644
-46.72035282  20.16186182   0.50712051
-46.62035282  20.16323381   0.50785415
-46.52035282  20.16462388   0.50859745
-46.42035282  20.16603222   0.50935052
-46.32035282  20.16745904   0.51011347
-46.22035282  20.16890453   0.51088640
-46.12035282  20.17036890   0.51166943
-46.02035282  20.17185235   0.51246267
-45.92035282  20.17335509   0.51326622
-45.82035282  20.17487733   0.51408019
-45.72035282  20.17641928   0.51490470
-45.62035282  20.17798114   0.51573987
-45.52035282  20.17956314   0.51658580
-45.42035282  20.18116549   0.51744261
-45.32035282  20.18278839   0.51831041
-45.22035282  20.18443208   0.51918932
-45.12035282  20.18609677   0.52007947
-45.02035282  20.18778267   0.52098096
-44.92035282  20.18949002   0.52189392
-44.82035282  20.19121904   0.52281846
-44.72035282  20.19296995   0.52375471
-44.62035282  20.19474298   0.52470279
-44.52035282  20.19653836   0.52566282
-44.42035282  20.19835632   0.52663492
-44.32035282  20.20019710   0.52761922
-44.22035282  20.20206092   0.52861585
-44.12035282  20.20394802   0.52962492
-44.02035282  20.20585864   0.53064657
-43.92035282  20.20779302   0.53168093
-43.82035282  20.20975140   0.53272811
-43.72035282  20.21173401   0.53378826
-43.62035282  20.21374112   0.53486150
-43.52035282  20.21577295   0.53594797
-43.42035282  20.21782976   0.53704779
-43.32035282  20.21991179   0.53816110
-43.22035282  20.22201930   0.53928803
-43.12035282  20.22415254   0.54042872
-43.02035282  20.22631175   0.54158330
-42.92035282  20.22849720   0.54275191
-42.82035282  20.23070915   0.54393468
-42.72035282  20.23294784   0.54513176
-42.62035282  20.23521355   0.54634328
-42.52035282  20.23750653   0.54756939
-42.42035282  20.23982704   0.54881022
-42.32035282  20.24217535   0.55006591
-42.22035282  20.24455173   0.55133661
-42.12035282  20.24695645   0.55262246
-42.02035282  20.24938976   0.55392361
-41.92035282  20.25185195   0.55524020
-41.82035282  20.25434329   0.55657237
-41.72035282  20.25686405   0.55792028
-41.62035282  20.25941451   0.55928406
-41.52035282  20.26199495   0.56066388
-41.42035282  20.26460563   0.56205987
-41.32035282  20.26724686   0.56347219
-41.22035282  20.26991890   0.56490099
-41.12035282  20.27262204   0.56634641
-41.02035282  20.27535656   0.56780862
-40.92035282  20.27812276   0.56928777
-40.82035282  20.28092092   0.57078401
-40.72035282  20.28375132   0.57229749
-40.62035282  20.28661427   0.57382837
-40.52035282  20.28951006   0.57537681
-40.42035282  20.29243897   0.57694296
-40.32035282  20.29540131   0.57852699
-40.22035282  20.29839737   0.58012905
-40.12035282  20.30142746   0.58174930
-40.02035282  20.30449186   0.58338790
-39.92035282  20.30759089   0.58504502
-39.82035282  20.31072484   0.58672081
-39.72035282  20.31389402   0.58841544
-39.62035282  20.31709874   0.59012908
-39.52035282  20.32033931   0.59186188
-39.42035282  20.32361603   0.59361401
-39.32035282  20.32692921   0.59538564
-39.22035282  20.33027917   0.59717694
-39.12035282  20.33366621   0.59898806
-39.02035282  20.33709066   0.60081919
-38.92035282  20.34055283   0.60267049
-38.82035282  20.34405303   0.60454212
-38.72035282  20.34759159   0.60643427
-38.62035282  20.35116883   0.60834709
-38.52035282  20.35478505   0.61028077
-38.42035282  20.35844060   0.61223547
-38.32035282  20.36213579   0.61421137
-38.22035282  20.36587095   0.61620864
-38.12035282  20.36964640   0.61822745
-38.02035282  20.37346247   0.62026799
-37.92035282  20.37731949   0.62233042
-37.82035282  20.38121779   0.62441493
-37.72035282  20.38515769   0.62652168
-37.62035282  20.38913955   0.62865086
-37.52035282  20.39316368   0.63080265
-37.42035282  20.39723042   0.63297723
-37.32035282  20.40134010   0.63517477
-37.22035282  20.40549308   0.63739545
-37.12035282  20.40968967   0.63963946
-37.02035282  20.41393023   0.64190698
-36.92035282  20.41821508   0.64419819
-36.82035282  20.42254458   0.64651326
-36.72035282  20.42691907   0.64885240
-36.62035282  20.43133888   0.65121577
-36.52035282  20.43580436   0.65360356
-36.42035282  20.44031587   0.65601596
-36.32035282  20.44487374   0.65845315
-36.22035282  20.44947832   0.66091532
-36.12035282  20.45412995   0.66340265
-36.02035282  20.45882900   0.66591533
-35.92035282  20.46357581   0.66845355
-35.82035282  20.46837072   0.67101750
-35.72035282  20.47321410   0.67360736
-35.62035282  20.47810629   0.67622332
-35.52035282  20.48304765   0.67886557
-35.42035282  20.48803853   0.68153430
-35.32035282  20.49307928   0.68422970
-35.22035282  20.49817026   0.68695196
-35.12035282  20.50331184   0.68970127
-35.02035282  20.50850435   0.69247782
-34.92035282  20.51374817   0.69528181
-34.82035282  20.51904365   0.69811341
-34.72035282  20.52439114   0.70097284
-34.62035282  20.52979102   0.70386027
-34.52035282  20.53524363   0.70677590
-34.42035282  20.54074934   0.70971992
-34.32035282  20.54630851   0.71269253
-34.22035282  20.55192150   0.71569392
-34.12035282  20.55758867   0.71872428
-34.02035282  20.56331039   0.72178381
-33.92035282  20.56908702   0.72487269
-33.82035282  20.57491892   0.72799114
-33.72035282  20.58080645   0.73113933
-33.62035282  20.58674998   0.73431747
-33.52035282  20.59274988   0.73752574
-33.42035282  20.59880650   0.74076435
-33.32035282  20.60492022   0.74403349
-33.22035282  20.61109139   0.74733335
-33.12035282  20.61732039   0.75066413
-33.02035282  20.62360757   0.75402602
-32.92035282  20.62995330   0.75741922
-32.82035282  20.63635796   0.76084393
-32.72035282  20.64282189   0.76430034
-32.62035282  20.64934548   0.76778864
-32.52035282  20.65592908   0.77130904
-32.42035282  20.66257307   0.77486172
-32.32035282  20.66927780   0.77844689
-32.22035282  20.67604364   0.78206473
-32.12035282  20.68287096   0.78571544
-32.02035282  20.68976012   0.78939923
-31.92035282  20.69671149   0.79311628
-31.82035282  20.70372543   0.79686678
-31.72035282  20.71080231   0.80065094
-31.62035282  20.71794248   0.80446895
-31.52035282  20.72514633   0.80832101
-31.42035282  20.73241420   0.81220730
-31.32035282  20.73974647   0.81612802
-31.22035282  20.74714348   0.82008336
-31.12035282  20.75460562   0.82407353
-31.02035282  20.76213324   0.82809871
-30.92035282  20.76972669   0.83215910
-30.82035282  20.77738635   0.83625488
-30.72035282  20.78511257   0.84038626
-30.62035282  20.79290571   0.84455342
-30.52035282  20.80076613   0.84875656
-30.42035282  20.80869419   0.85299586
-30.32035282  20.81669024   0.85727153
-30.22035282  20.82475465   0.86158374
-30.12035282  20.83288777   0.86593270
-30.02035282  20.84108995   0.87031858
-29.92035282  20.84936154   0.87474159
-29.82035282  20.85770291   0.87920190
-29.72035282  20.86611441   0.88369971
-29.62035282  20.87459638   0.88823520
-29.52035282  20.88314917   0.89280856
-29.42035282  20.89177314   0.89741999
-29.32035282  20.90046863   0.90206966
-29.22035282  20.90923599   0.90675776
-29.12035282  20.91807557   0.91148447
-29.02035282  20.92698771   0.91624999
-28.92035282  20.93597275   0.92105448
-28.82035282  20.94503104   0.92589815
-28.72035282  20.95416292   0.93078116
-28.62035282  20.96336872   0.93570370
-28.52035282  20.97264878   0.94066596
-28.42035282  20.98200345   0.94566810
-28.32035282  20.99143305   0.95071031
-28.22035282  21.00093792   0.95579278
-28.12035282  21.01051840   0.96091566
-28.02035282  21.02017480   0.96607915
-27.92035282  21.02990746   0.97128342
-27.82035282  21.03971671   0.97652864
-27.72035282  21.04960287   0.98181498
-27.62035282  21.05956627   0.98714263
-27.52035282  21.06960722   0.99251174
-27.42035282  21.07972604   0.99792250
-27.32035282  21.08992307   1.00337507
-27.22035282  21.10019860   1.00886962
-27.12035282  21.11055295   1.01440632
-27.02035282  21.12098644   1.01998533
-26.92035282  21.13149938   1.02560683
-26.82035282  21.14209206   1.03127097
-26.72035282  21.15276481   1.03697792
-26.62035282  21.16351791   1.04272784
-26.52035282  21.17435168   1.04852089
-26.42035282  21.18526641   1.05435723
-26.32035282  21.19626239   1.06023702
-26.22035282  21.20733993   1.06616042
-26.12035282  21.21849930   1.07212758
-26.02035282  21.22974081   1.07813866
-25.92035282  21.24106474   1.08419381
-25.82035282  21.25247137   1.09029318
-25.72035282  21.26396098   1.09643693
-25.62035282  21.27553385   1.10262520
-25.52035282  21.28719026   1.10885813
-25.42035282  21.29893049   1.11513589
-25.32035282  21.31075479   1.12145860
-25.22035282  21.32266345   1.12782642
-25.12035282  21.33465672   1.13423948
-25.02035282  21.34673487   1.14069793
-24.92035282  21.35889815   1.14720190
-24.82035282  21.37114683   1.15375154
-24.72035282  21.38348116   1.16034697
-24.62035282  21.39590138   1.16698833
-24.52035282  21.40840774   1.17367576
-24.42035282  21.42100049   1.18040938
-24.32035282  21.43367987   1.18718932
-24.22035282  21.44644611   1.19401571
-24.12035282  21.45929946   1.20088867
-24.02035282  21.47224013   1.20780833
-23.92035282  21.48526837   1.21477481
-23.82035282  21.49838438   1.22178823
-23.72035282  21.51158840   1.22884871
-23.62035282  21.52488064   1.23595636
-23.52035282  21.53826132   1.24311129
-23.42035282  21.55173064   1.25031363
-23.32035282  21.56528881   1.25756348
-23.22035282  21.57893604   1.26486095
-23.12035282  21.59267251   1.27220614
-23.02035282  21.60649844   1.27959917
-22.92035282  21.62041401   1.28704013
-22.82035282  21.63441941   1.29452912
-22.72035282  21.64851482   1.30206624
-22.62035282  21.66270043   1.30965159
-22.52035282  21.67697640   1.31728527
-22.42035282  21.69134292   1.32496736
-22.32035282  21.70580014   1.33269795
-22.22035282  21.72034825   1.34047714
-22.12035282  21.73498738   1.34830500
-22.02035282  21.74971771   1.35618163
-21.92035282  21.76453938   1.36410710
-21.82035282  21.77945255   1.37208149
-21.72035282  21.79445734   1.38010489
-21.62035282  21.80955391   1.38817735
-21.52035282  21.82474239   1.39629896
-21.42035282  21.84002291   1.40446979
-21.32035282  21.85539559   1.41268990
-21.22035282  21.87086056   1.42095935
-21.12035282  21.88641794   1.42927822
-21.02035282  21.90206783   1.43764656
-20.92035282  21.91781035   1.44606442
-20.82035282  21.93364560   1.45453187
-20.72035282  21.94957367   1.46304896
-20.62035282  21.96559467   1.47161574
-20.52035282  21.98170868   1.48023225
-20.42035282  21.99791578   1.48889854
-20.32035282  22.01421607   1.49761466
-20.22035282  22.03060960   1.50638064
-20.12035282  22.04709646   1.51519652
-20.02035282  22.06367671   1.52406234
-19.92035282  22.08035041   1.53297813
-19.82035282  22.09711762   1.54194392
-19.72035282  22.11397838   1.55095974
-19.62035282  22.13093274   1.56002561
-19.52035282  22.14798075   1.56914155
-19.42035282  22.16512244   1.57830759
-19.32035282  22.18235785   1.58752373
-19.22035282  22.19968699   1.59679000
-19.12035282  22.21710988   1.60610640
-19.02035282  22.23462655   1.61547295
-18.92035282  22.25223700   1.62488964
-18.82035282  22.26994125   1.63435648
-18.72035282  22.28773928   1.64387348
-18.62035282  22.30563109   1.65344062
-18.52035282  22.32361668   1.66305790
-18.42035282  22.34169602   1.67272532
-18.32035282  22.35986909   1.68244286
-18.22035282  22.37813588   1.69221051
-18.12035282  22.39649634   1.70202824
-18.02035282  22.41495043   1.71189605
-17.92035282  22.43349813   1.72181391
-17.82035282  22.45213936   1.73178178
-17.72035282  22.47087409   1.74179965
-17.62035282  22.48970226   1.75186748
-17.52035282  22.50862379   1.76198523
-17.42035282  22.52763861   1.77215287
-17.32035282  22.54674666   1.78237036
-17.22035282  22.56594784   1.79263765
-17.12035282  22.58524207   1.80295470
-17.02035282  22.60462926   1.81332145
-16.92035282  22.62410931   1.82373786
-16.82035282  22.64368211   1.83420386
-16.72035282  22.66334756   1.84471940
-16.62035282  22.68310553   1.85528442
-16.52035282  22.70295590   1.86589884
-16.42035282  22.72289855   1.87656261
-16.32035282  22.74293334   1.88727565
-16.22035282  22.76306014   1.89803789
-16.12035282  22.78327880   1.90884925
-16.02035282  22.80358916   1.91970964
-15.92035282  22.82399108   1.93061899
-15.82035282  22.84448438   1.94157720
-15.72035282  22.86506890   1.95258420
-15.62035282  22.88574447   1.96363987
-15.52035282  22.90651090   1.97474414
-15.42035282  22.92736802   1.98589689
-15.32035282  22.94831562   1.99709803
-15.22035282  22.96935351   2.00834744
-15.12035282  22.99048148   2.01964503
-15.02035282  23.01169933   2.03099068
-14.92035282  23.03300683   2.04238426
-14.82035282  23.05440378   2.05382568
-14.72035282  23.07588993   2.06531479
-14.62035282  23.09746506   2.07685148
-14.52035282  23.11912892   2.08843562
-14.42035282  23.14088128   2.10006708
-14.32035282  23.16272187   2.11174572
-14.22035282  23.18465045   2.12347141
-14.12035282  23.20666674   2.13524400
-14.02035282  23.22877048   2.14706335
-13.92035282  23.25096139   2.15892931
-13.82035282  23.27323919   2.17084173
-13.72035282  23.29560359   2.18280047
-13.62035282  23.31805430   2.19480535
-13.52035282  23.34059102   2.20685623
-13.42035282  23.36321345   2.21895293
-13.32035282  23.38592127   2.23109529
-13.22035282  23.40871416   2.24328315
-13.12035282  23.43159180   2.25551632
-13.02035282  23.45455387   2.26779464
-12.92035282  23.47760002   2.28011792
-12.82035282  23.50072991   2.29248598
-12.72035282  23.52394320   2.30489863
-12.62035282  23.54723954   2.31735569
-12.52035282  23.57061856   2.32985696
-12.42035282  23.59407990   2.34240225
-12.32035282  23.61762319   2.35499136
-12.22035282  23.64124805   2.36762408
-12.12035282  23.66495410   2.38030023
-12.02035282  23.68874095   2.39301957
-11.92035282  23.71260820   2.40578191
-11.82035282  23.73655546   2.41858703
-11.72035282  23.76058231   2.43143471
-11.62035282  23.78468836   2.44432474
-11.52035282  23.80887317   2.45725688
-11.42035282  23.83313632   2.47023092
-11.32035282  23.85747739   2.48324662
-11.22035282  23.88189594   2.49630375
-11.12035282  23.90639153   2.50940207
-11.02035282  23.93096371   2.52254135
-10.92035282  23.95561202   2.53572135
-10.82035282  23.98033602   2.54894181
-10.72035282  24.00513524   2.56220249
-10.62035282  24.03000920   2.57550314
-10.52035282  24.05495744   2.58884350
-10.42035282  24.07997946   2.60222332
-10.32035282  24.10507480   2.61564235
-10.22035282  24.13024294   2.62910030
-10.12035282  24.15548341   2.64259693
-10.02035282  24.18079568   2.65613195
 -9.92035282  24.20617927   2.66970511
 -9.82035282  24.23163364   2.68331611
 -9.72035282  24.25715828   2.69696470
 -9.62035282  24.28275268   2.71065058
 -9.52035282  24.30841629   2.72437347
 -9.42035282  24.33414858   2.73813309
 -9.32035282  24.35994902   2.75192914
 -9.22035282  24.38581705   2.76576134
 -9.12035282  24.41175213   2.77962939
 -9.02035282  24.43775370   2.79353300
 -8.92035282  24.46382120   2.80747186
 -8.82035282  24.48995405   2.82144566
 -8.72035282  24.51615170   2.83545412
 -8.62035282  24.54241356   2.84949690
 -8.52035282  24.56873905   2.86357372
 -8.42035282  24.59512759   2.87768424
 -8.32035282  24.62157858   2.89182816
 -8.22035282  24.64809143   2.90600516
 -8.12035282  24.67466553   2.92021491
 -8.02035282  24.70130028   2.93445709
 -7.92035282  24.72799507   2.94873138
 -7.82035282  24.75474928   2.96303744
 -7.72035282  24.78156229   2.97737494
 -7.62035282  24.80843349   2.99174355
 -7.52035282  24.83536222   3.00614293
 -7.42035282  24.86234787   3.02057275
 -7.32035282  24.88938980   3.03503265
 -7.22035282  24.91648735   3.04952230
 -7.12035282  24.94363989   3.06404136
 -7.02035282  24.97084676   3.07858946
 -6.92035282  24.99810730   3.09316627
 -6.82035282  25.02542085   3.10777142
 -6.72035282  25.05278675   3.12240456
 -6.62035282  25.08020433   3.13706534
 -6.52035282  25.10767292   3.15175339
 -6.42035282  25.13519183   3.16646835
 -6.32035282  25.16276039   3.18120986
 -6.22035282  25.19037791   3.19597755
 -6.12035282  25.21804369   3.21077104
 -6.02035282  25.24575705   3.22558998
 -5.92035282  25.27351729   3.24043399
 -5.82035282  25.30132371   3.25530269
 -5.72035282  25.32917560   3.27019570
 -5.62035282  25.35707226   3.28511265
