# intensity: 1.02194379479287
# background: 0
#           Q (1/A)             dQ (1/A)                    R                   dR               theory              fresnel
     0.0483642315116 0.000750702739851845       0.951434579138     0.00501003519873    0.920358586118266   0.0188996161316963
     0.0497866914682 0.000750709007438337        0.94044560157     0.00496697431537    0.916660867276093   0.0172626102366303
     0.0512091499082 0.000750715456630211        0.92483593417     0.00490572657895    0.910340350228056   0.0150125025721391
     0.0526316067882    0.000750722087422        0.91507948482      0.0048673956524     0.90285635182308   0.0130634026663163
      0.054054062065 0.000750728899808085       0.891642996968     0.00477516962074    0.894096169161654   0.0114339595618163
     0.0554765156953 0.000750735893782693       0.876236096925     0.00471441470647    0.883601657009692   0.0100608693941451
     0.0568989676356 0.000750743069339895       0.854327123245     0.00462784251127    0.870715528162542  0.00889548068300725
     0.0583214178427 0.000750750426473612       0.832076973197     0.00453970038522    0.854499796480947  0.00789992802610343
     0.0597438662732 0.000750757965177608       0.797485049287     0.00440218205643    0.833646875474993    0.007044406183115
     0.0611663128838 0.000750765685445495       0.755120376229     0.00423288370811    0.806436634234722  0.00630521446187478
     0.0625887576312 0.000750773587270732       0.713350487453     0.00406490300013    0.770885781808353  0.00566333176936654
      0.064011200472 0.000750781670646622       0.660982624188     0.00385260415179    0.725376454935308  0.00510336372434909
     0.0654336413629 0.000750789935566318       0.611077559878     0.00364824562759    0.670061044079694  0.00461275478896808
     0.0668560802606 0.000750798382022817        0.56406531003     0.00345358980774    0.608721274941506  0.00418119189356688
     0.0682785171218 0.000750807010008963       0.524906916272     0.00328959354811    0.549321674948111   0.0038001482399811
      0.069700951903 0.000750815819517446       0.497644208161     0.00317426832942      0.5011228209845  0.00346253094794307
     0.0711233845611 0.000750824810540804        0.47861385523      0.0030931423649    0.469536385655864  0.00316240647239188
     0.0725458150526  0.00075083398307142       0.474897210464      0.0030772339742    0.453529071494989   0.0028947848557459
     0.0739682433342 0.000750843337101525       0.465759918032     0.00303803317951    0.447738816229904  0.00265544890553756
     0.0753906693627 0.000750852872623196       0.468748114267     0.00305086561273    0.446242078549873   0.0024408179751876
     0.0768130930946 0.000750862589628355       0.459408054463     0.00301070035281    0.444728538360093   0.0022478386124813
     0.0782355144866 0.000750872488108774       0.451730687084     0.00297757578127    0.440777171744906  0.00207389622697205
     0.0796579334955  0.00075088256805607        0.44262088991     0.00293813751632    0.433320551821746  0.00191674331727379
     0.0810803500778 0.000750892829461706       0.427630839031     0.00287291585697     0.42207299333883  0.00177444083143709
     0.0825027641903 0.000750903272316994       0.407801406942     0.00278596845389    0.407153671991247  0.00164531000758939
     0.0839251757896 0.000750913896613089        0.38491694649     0.00268458712938    0.388886422858899  0.00152789262732377
     0.0853475848324 0.000750924702340998        0.36495233615     0.00259513435406    0.367708811489217   0.0014209180593156
     0.0867699912754  0.00075093568949157       0.339069270754     0.00247758842129    0.344137275709736  0.00132327581258717
     0.0881923950752 0.000750946858055505       0.315984395044     0.00237105595035    0.318755537582945  0.00123399258245787
     0.0896147961885 0.000750958208023346        0.29176402206     0.00225731092922     0.29220745199613  0.00115221297723359
      0.091037194572 0.000750969739385486       0.260541415925     0.00210718175422    0.265183785680641  0.00107718327401092
     0.0924595901823 0.000750981452132163       0.233198425444     0.00197181075627    0.238397835749697  0.00100823767793048
     0.0938819829761 0.000750993346253465       0.203718442648     0.00182081600318    0.212549160967079 0.000944786658866224
     0.0953043729102 0.000751005421739325       0.179902428357     0.00169407309675    0.188278676450246 0.000886307018768122
     0.0967267599411 0.000751017678579521       0.159465870211      0.0015810856865    0.166121654357895 0.000832333406102114
     0.0981491440255 0.000751030116763682       0.139745756765     0.00146746640219    0.146466968015548 0.000782451044537625
     0.0995715251202 0.000751042736281284       0.126108664385     0.00138566532441    0.129530495155456 0.000736289484068379
      0.100993903182 0.000751055537121649       0.112524602447     0.00130099949817    0.115347888788306 0.000693517215788405
      0.102416278167 0.000751068519273941       0.102319996657     0.00123490813755    0.103787733560799 0.000653837018525816
      0.103838650032 0.000751081682727178      0.0923451938816     0.00116785769893   0.0945818212763485 0.000616981927428388
      0.105261018734 0.000751095027470228       0.086452774134     0.00112693280748   0.0873662531445702 0.000582711732803545
       0.10668338423 0.000751108553491803      0.0807360861031      0.0010861680282   0.0817260380639176 0.000550809932133888
      0.108105746476 0.000751122260780457      0.0782499283608     0.00106807991715   0.0772367096733213 0.000521081070513061
      0.109528105429 0.000751136149324599       0.074804005069     0.00104262552508   0.0734985281318204 0.000493348414761256
      0.110950461045 0.000751150219112476      0.0717636165127     0.00101976905544    0.070161189858405 0.000467451915118712
      0.112372813282 0.000751164470132202      0.0692369052886     0.00100047071944   0.0669389581033913 0.000443246415085433
      0.113795162096  0.00075117890237172      0.0658044998135    0.000973787182507   0.0636174208266485 0.000420600076242215
      0.115217507443  0.00075119351581882      0.0610469014476    0.000935831757317   0.0600536678799135 0.000399392989332099
      0.116639849281 0.000751208310461158      0.0568029804151    0.000900911670889    0.056171730958965 0.000379515947371715
      0.118062187565  0.00075122328628621       0.051153205622    0.000852651373305   0.0519548748372273 0.000360869360004603
      0.119484522253 0.000751238443281329      0.0459089655654    0.000805749994439   0.0474359637713668 0.000343362290906137
      0.120906853302 0.000751253781433706      0.0424490783547    0.000773512018533   0.0426867844537594 0.000326911603092385
      0.122329180667  0.00075126930073036      0.0366782244134    0.000717022413013   0.0378069520549576  0.00031144119861699
      0.123751504306 0.000751285001158187       0.032705241141    0.000675774607553   0.0329128743716638 0.000296881341116839
      0.125173824175 0.000751300882703912      0.0279482240383    0.000623256835424   0.0281271834814836 0.000283168051394108
      0.126596140232 0.000751316945354128      0.0231236178092    0.000565581758074   0.0235690300596856 0.000270242567153475
      0.128018452432 0.000751333189095245      0.0191641523513    0.000513885901012   0.0193456341666894 0.000258050859535196
      0.129440760732 0.000751349613913542         0.0141359001    0.000440271397973   0.0155454634113181 0.000246543199686784
      0.130863065089 0.000751366219795145      0.0120352606732    5.97466838036e-05   0.0122333433520392 0.000235673769790695
       0.13228536546 0.000751383006726032     0.00934358447845    4.93090836114e-05  0.00944768914260448 0.000225400313439458
      0.133707661802 0.000751399974692025       0.007159964344    4.06431350028e-05  0.00719989196651836 0.000215683820976384
       0.13512995407 0.000751417123678775      0.0055887953509    3.42157019178e-05  0.00547572092582668 0.000206488245951467
      0.136552242222 0.000751434453671812     0.00434438216249    2.89307750414e-05  0.00423843899128514 0.000197780249237421
      0.137974526215 0.000751451964656508     0.00361685846449    2.57148597532e-05  0.00343320675900405 0.000189528967921295
      0.139396806004 0.000751469656618054      0.0032326339746    2.39622827213e-05  0.00299227785546358 0.000181705806249848
      0.140819081547 0.000751487529541531     0.00306589923611    2.31866348511e-05  0.00284048094997787 0.000174284246290318
      0.142241352801 0.000751505583411852     0.00318062969614    2.37193714533e-05  0.00290052942057444 0.000167239676329097
      0.143663619722 0.000751523818213769     0.00337496823168    2.47063536734e-05  0.00309778613707763 0.000160549235106521
      0.145085882266 0.000751542233931882      0.0036949756928    2.61589950027e-05  0.00336421895256882 0.000154191670288701
      0.146508140391 0.000751560830550665     0.00397145575941    2.73928607322e-05  0.00364139425921058 0.000148147209738993
      0.147930394053 0.000751579608054414     0.00421400608699    2.84612866375e-05  0.00388245730212483 0.000142397444338315
      0.149352643209  0.00075159856642729     0.00432489280365    2.89462301701e-05  0.00405313025483903 0.000136925221157292
      0.150774887815 0.000751617705653286     0.00441551630015    2.93399338413e-05  0.00413181908447794 0.000131714546016264
      0.152197127829 0.000751637025716273     0.00440570235966    2.92971621979e-05  0.00410895891588426 0.000126750494484866
      0.153619363206 0.000751656526599929     0.00423975754483    2.85742069983e-05  0.00398574836687573 0.000122019130558104
      0.155041593904 0.000751676208287825     0.00402447267002    2.76282468751e-05  0.00377243056729008 0.000117507432214759
      0.156463819879  0.00075169607076335     0.00376295683488    2.64655617869e-05  0.00348627644205163 0.000113203223284047
      0.157886041087 0.000751716114009744     0.00337408957571    2.47042895404e-05  0.00314941757469432 0.000109095110974818
      0.159308257487 0.000751736338010139     0.00308011744466    2.33425864036e-05  0.00278666368456591 0.000105172428565736
      0.160730469033 0.000751756742747443     0.00261365787108    2.11158744366e-05  0.00242342455457823 0.000101425182816659
      0.162152675683 0.000751777328204473      0.0022931908026    1.95260552448e-05  0.00208383854345982 9.78440055987654e-05
      0.163574877394  0.00075179809436388     0.00195542091802     1.7781265055e-05  0.00178918979141765 9.44201094476354e-05
      0.164997074122 0.000751819041208152     0.00171939970045    1.65088742694e-05  0.00155667404572035 9.11452466408314e-05
      0.166419265824 0.000751840168719637     0.00153650353356    1.54844721767e-05  0.00139854927516762 8.80116714989048e-05
      0.167841452457 0.000751861476880536     0.00142038542022    1.48131868323e-05  0.00132168283158278 8.50121056399952e-05
      0.169263633977 0.000751882965672885     0.00142606290655    1.48464289689e-05  0.00132748315844874 8.21397059256128e-05
       0.17068581034 0.000751904635078568      0.0014925706036    1.52325652606e-05  0.00141218243307293 7.93880348634359e-05
      0.172107981505 0.000751926485079365     0.00161643442974    1.59373580224e-05  0.00156741849265641 7.67510332592641e-05
      0.173530147426 0.000751948515656829     0.00180153400168    1.69585580227e-05  0.00178105108793647 7.42229949524237e-05
      0.174952308062 0.000751970726792442     0.00205381716225    1.82992953111e-05  0.00203813963292366 7.17985434083827e-05
      0.176374463368  0.00075199311846747      0.0023343525766    1.97344470814e-05  0.00232200729902041 6.94726100805603e-05
      0.177796613302 0.000752015690663082     0.00260542551408    2.10763821058e-05  0.00261531916758467  6.7240414336158e-05
      0.179218757819 0.000752038443360243     0.00289958689434    2.24920938466e-05  0.00290110933877474 6.50974448667934e-05
      0.180640896878 0.000752061376539838     0.00321740446812    2.39825517742e-05  0.00316370231796004 6.30394424233875e-05
      0.182063030433 0.000752084490182517     0.00343099961467    2.49651513109e-05  0.00338948640284972 6.10623838127504e-05
      0.183485158443 0.000752107784268866     0.00358430526397    2.56621682408e-05  0.00356751004838097 5.91624670055779e-05
      0.184907280863 0.000752131258779252      0.0037512639166      2.641398538e-05   0.0036898852437708 5.73360973212726e-05
      0.186329397651 0.000752154913693944     0.00387658766861    2.69733282329e-05  0.00375199408525579 5.55798745584678e-05
      0.187751508763 0.000752178748993029     0.00385267463694    2.68668280435e-05  0.00375250540720012 5.38905810344998e-05
      0.189173614156  0.00075220276465646     0.00376766103801    2.64872359174e-05  0.00369321729283783 5.22651704388948e-05
      0.190595713786 0.000752226960664025     0.00367332014005    2.60639193999e-05  0.00357874838627966 5.07007574546495e-05
       0.19201780761 0.000752251336995379     0.00348570625226    2.52151940827e-05  0.00341610618778781  4.9194608078886e-05
      0.193439895585 0.000752275893630027     0.00333914599882    2.45448440255e-05  0.00321416399877754 4.77441305982223e-05
      0.194861977668 0.000752300630547327     0.00308701153477    2.33760521939e-05  0.00298307998764779 4.63468671657084e-05
      0.196284053814 0.000752325547726453     0.00285420755945    2.22766508554e-05  0.00273369207355019  4.5000485937914e-05
      0.197706123982 0.000752350645146498     0.00256368247262    2.08728404235e-05  0.00247692107097541 4.37027737217732e-05
      0.199128188127 0.000752375922786338     0.00231195354194    1.96222677466e-05   0.0022232119262597  4.2451629114429e-05
      0.200550246206 0.000752401380624735     0.00203928550175    1.82246477035e-05  0.00198203902530588 4.12450560749756e-05
      0.201972298176 0.000752427018640302      0.0018164982344    1.70414620999e-05  0.00176149667538269 4.00811579169216e-05
      0.203394343994 0.000752452836811504     0.00159668488852    1.58290040676e-05  0.00156799016875633 3.89581316825204e-05
      0.204816383616 0.000752478835116639     0.00142823927619    1.48627561179e-05  0.00140603663752665 3.78742628745414e-05
      0.206238416999 0.000752505013533874     0.00128250360926     1.3995115781e-05   0.0012781785331547 3.68279205173862e-05
      0.207660444099  0.00075253137204121      0.0011998195825    1.34864695972e-05  0.00118500637535256 3.58175525298965e-05
      0.209082464874 0.000752557910616538      0.0011205150117    1.29866515456e-05  0.00112528175980632 3.48416813817376e-05
       0.21050447928 0.000752584629237562     0.00109082085699    1.27957157118e-05  0.00109614681334709  3.3898900022305e-05
      0.211926487274 0.000752611527881857     0.00108626985584    1.27656916617e-05  0.00109340257835189 3.29878680539764e-05
      0.213348488811 0.000752638606526812     0.00109142915849     6.3819630991e-06  0.00111183636171665 3.21073081418606e-05
       0.21477048385 0.000752665865149744     0.00112026718402    6.87719049242e-06  0.00114557695299654 3.12560026346682e-05
      0.216192472347 0.000752693303727766     0.00116189757771    7.05034664085e-06  0.00118845676853821  3.0432790396026e-05
      0.217614454258 0.000752720922237841     0.00121623472667     7.2749655485e-06  0.00123436129153584 2.96365638184047e-05
       0.21903642954 0.000752748720656806     0.00125786512065    7.44612931396e-06  0.00127754846308082 2.88662660149288e-05
       0.22045839815 0.000752776698961349     0.00129284474508     7.5893713891e-06  0.00131292370645431 2.81208881772496e-05
      0.221880360044  0.00075280485712799     0.00133221135443    7.74968165455e-06  0.00133625978689259 2.73994670875314e-05
      0.223302315179 0.000752833195133124      0.0013433797814    7.79494488572e-06  0.00134435447451423 2.67010827731617e-05
      0.224724263513 0.000752861712953016     0.00132416013838    7.71661449338e-06  0.00133512276186837   2.602485629758e-05
         0.226146205 0.000752890410563704      0.0013026424649     7.6287601863e-06  0.00130762399394678 2.53699476797918e-05
      0.227568139599 0.000752919287941181     0.00128050297122    7.53817077327e-06  0.00126202753605992 2.47355539257113e-05
      0.228990067266 0.000752948345061231     0.00119781443798    7.19851343166e-06  0.00119952341323485 2.41209071784466e-05
      0.230411987957 0.000752977581899491       0.001134456394    6.93603181628e-06  0.00112218661529195 2.35252729674319e-05
       0.23183390163 0.000753006998431492     0.00106001373391    6.62480067862e-06  0.00103280542289654 2.29479485557652e-05
      0.233255808241 0.000753036594632577     0.00094615309734    6.14183828876e-06  0.00093468514627273 2.23882613815652e-05
      0.234677707746 0.000753066370477943    0.000848486814714    5.71950179159e-06  0.00083143907901405 2.18455675827216e-05
      0.236099600102  0.00075309632594266    0.000743412765034     5.2542046191e-06 0.000726778282597146 2.13192506028568e-05
      0.237521485267 0.000753126461001672     0.00063814946533    4.77397584665e-06 0.000624311075299683  2.0808719873509e-05
      0.238943363196 0.000753156775629716    0.000536995583825    4.29479165684e-06 0.000527361869847851 2.03134095689432e-05
      0.240365233847 0.000753187269801442     0.00045000838202    3.86380973128e-06 0.000438817369844476 1.98327774243669e-05
      0.241787097175 0.000753217943491293    0.000363751142256    3.41238843721e-06 0.000361006201101327 1.93663036214005e-05
      0.243208953139 0.000753248796673652    0.000298697963644    3.04975269737e-06 0.000295615922641751 1.89134897283911e-05
      0.244630801693 0.000753279829322644    0.000242972083755    2.71741058142e-06 0.000243649164116269 1.84738577018012e-05
      0.246052642796  0.00075331104141236    0.000198736354524    2.43356797683e-06 0.000205418476977078 1.80469489340278e-05
      0.247474476404 0.000753342432916679    0.000174182577659    2.26554737987e-06 0.000180577492011333 1.76323233564052e-05
      0.248896302473 0.000753374003809332    0.000159767168989    2.16240641046e-06 0.000168184230918874 1.72295585853732e-05
      0.250318120961 0.000753405754063953    0.000153719294349    2.11814303233e-06  0.00016679101539411 1.68382491130215e-05
      0.251739931823 0.000753437683653959    0.000153051513857    2.11314362341e-06  0.00017455440178706 1.64580055410274e-05
      0.253161735017 0.000753469792552689     0.00017290379107    2.25593599085e-06 0.000189357975867801 1.60884538506511e-05
      0.254583530499 0.000753502080733295    0.000195486668809    2.41079482605e-06 0.000208940672625054 1.57292347126305e-05
      0.256005318226 0.000753534548168803    0.000217420690923    2.55480813452e-06 0.000231023518434402 1.53800028297551e-05
      0.257427098154 0.000753567194832071    0.000239514222915    2.69494330267e-06 0.000253428284069495 1.50404263136338e-05
      0.258848870241 0.000753600020695859    0.000256498017476     2.7995896412e-06  0.00027418242742201  1.4710186091298e-05
      0.260270634443 0.000753633025732736    0.000275266165154    2.91238863737e-06 0.000291605822442982 1.43889753428337e-05
      0.261692390717 0.000753666209915148    0.000288951611052    2.99306016794e-06 0.000304376039776134 1.40764989650918e-05
      0.263114139019 0.000753699573215374    0.000300311991392    3.05910247919e-06 0.000311570285357952 1.37724730627942e-05
      0.264535879306  0.00075373311560557     0.00029936304069    3.05328890917e-06 0.000312683442907237   1.347662446356e-05
      0.265957611535 0.000753766837057748    0.000293953207578    3.02171931466e-06 0.000307622936012264 1.31886902570718e-05
      0.267379335663 0.000753800737543776    0.000283379565175    2.95978246281e-06 0.000296682268112555 1.29084173562231e-05
      0.268801051645  0.00075383481703533    0.000266019974526    2.85657438288e-06 0.000280496066621141 1.26355620796828e-05
       0.27022275944 0.000753869075504036    0.000248254848844    2.74849659603e-06 0.000259980215885022 1.23698897528331e-05
