# intensity: 1.02314958248092
# background: 0
#           Q (1/A)             dQ (1/A)                    R                   dR               theory              fresnel
     0.0483642315116 0.000750702739851845       0.951434579138     0.00501003519873     0.92098039856091   0.0189219157185783
     0.0497866914682 0.000750709007438337        0.94044560157     0.00496697431537    0.917240120491978   0.0172829783263364
     0.0512091499082 0.000750715456630211        0.92483593417     0.00490572657895    0.910845818510661   0.0150302157681686
     0.0526316067882    0.000750722087422        0.91507948482      0.0048673956524    0.903274366738765   0.0130788161266057
      0.054054062065 0.000750728899808085       0.891642996968     0.00477516962074    0.894414805383988   0.0114474504482384
     0.0554765156953 0.000750735893782693       0.876236096925     0.00471441470647    0.883809445508748   0.0100727401765779
     0.0568989676356 0.000750743069339895       0.854327123245     0.00462784251127    0.870803469028201  0.00890597642762797
     0.0583214178427 0.000750750426473612       0.832076973197     0.00453970038522    0.854464609943335  0.00790924912184167
     0.0597438662732 0.000750757965177608       0.797485049287     0.00440218205643    0.833495277211014  0.00705271785180805
     0.0611663128838 0.000750765685445495       0.755120376229     0.00423288370811    0.806188607575717  0.00631265396100124
     0.0625887576312 0.000750773587270732       0.713350487453     0.00406490300013    0.770570816388239  0.00567001391348801
      0.064011200472 0.000750781670646622       0.660982624188     0.00385260415179    0.725012541131377  0.00510938516425393
     0.0654336413629 0.000750789935566318       0.611077559878     0.00364824562759    0.669614122873179  0.00461819736121215
     0.0668560802606 0.000750798382022817        0.56406531003     0.00345358980774    0.608081336754149  0.00418612526635346
     0.0682785171218 0.000750807010008963       0.524906916272     0.00328959354811    0.548369935002891  0.00380463202077598
      0.069700951903 0.000750815819517446       0.497644208161     0.00317426832942    0.499887905475453  0.00346661637534896
     0.0711233845611 0.000750824810540804        0.47861385523      0.0030931423649    0.468271416294272  0.00316613778404371
     0.0725458150526  0.00075083398307142       0.474897210464      0.0030772339742    0.452587420054764  0.00289820040164618
     0.0739682433342 0.000750843337101525       0.465759918032     0.00303803317951    0.447380102716649  0.00265858205983906
     0.0753906693627 0.000750852872623196       0.468748114267     0.00305086561273    0.446546423756397   0.0024436978872515
     0.0768130930946 0.000750862589628355       0.459408054463     0.00301070035281    0.445628347035333  0.00225049082891186
     0.0782355144866 0.000750872488108774       0.451730687084     0.00297757578127    0.442125280827078  0.00207634320942796
     0.0796579334955  0.00075088256805607        0.44262088991     0.00293813751632    0.434942862046227   0.0019190048755952
     0.0810803500778 0.000750892829461706       0.427630839031     0.00287291585697    0.423797365346698  0.00177653448758396
     0.0825027641903 0.000750903272316994       0.407801406942     0.00278596845389    0.408823495936898  0.00164725130275679
     0.0839251757896 0.000750913896613089        0.38491694649     0.00268458712938    0.390367393433528  0.00152969538216027
     0.0853475848324 0.000750924702340998        0.36495233615     0.00259513435406    0.368893731620639   0.0014225945952566
     0.0867699912754  0.00075093568949157       0.339069270754     0.00247758842129    0.344950660544867  0.00132483714080389
     0.0881923950752 0.000750946858055505       0.315984395044     0.00237105595035     0.31915791721989  0.00123544856572295
     0.0896147961885 0.000750958208023346        0.29176402206     0.00225731092922     0.29219825894413   0.0011535724690462
      0.091037194572 0.000750969739385486       0.260541415925     0.00210718175422     0.26480134404229  0.00107845423855535
     0.0924595901823 0.000750981452132163       0.233198425444     0.00197181075627    0.237715192259566  0.00100942729382215
     0.0938819829761 0.000750993346253465       0.203718442648     0.00182081600318    0.211665278271966 0.000945901409136151
     0.0953043729102 0.000751005421739325       0.179902428357     0.00169407309675    0.187305679203545 0.000887352769127887
     0.0967267599411 0.000751017678579521       0.159465870211      0.0015810856865    0.165170024518308 0.000833315473196748
     0.0981491440255 0.000751030116763682       0.139745756765     0.00146746640219    0.145631372703268 0.000783374255619109
     0.0995715251202 0.000751042736281284       0.126108664385     0.00138566532441    0.128878945007941 0.000737158229296106
      0.100993903182 0.000751055537121649       0.112524602447     0.00130099949817     0.11491611178909 0.000694335494175641
      0.102416278167 0.000751068519273941       0.102319996657     0.00123490813755    0.103579304575964 0.000654608478395672
      0.103838650032 0.000751081682727178      0.0923451938816     0.00116785769893   0.0945732140346395 0.000617709902113135
      0.105261018734 0.000751095027470228       0.086452774134     0.00112693280748   0.0875150381373396 0.000583399272212931
       0.10668338423 0.000751108553491803      0.0807360861031      0.0010861680282   0.0819801533747426 0.000551459830727145
      0.108105746476 0.000751122260780457      0.0782499283608     0.00106807991715   0.0775430159876741 0.000521695892132902
      0.109528105429 0.000751136149324599       0.074804005069     0.00104262552508   0.0738094786472908 0.000493930514723573
      0.110950461045 0.000751150219112476      0.0717636165127     0.00101976905544   0.0704391268871137 0.000468003459897279
      0.112372813282 0.000751164470132202      0.0692369052886     0.00100047071944   0.0671580979403311 0.000443769399884408
      0.113795162096  0.00075117890237172      0.0658044998135    0.000973787182507   0.0637639280617616 0.000421096340710095
      0.115217507443  0.00075119351581882      0.0610469014476    0.000935831757317   0.0601243609686608 0.000399864231636895
      0.116639849281 0.000751208310461158      0.0568029804151    0.000900911670889   0.0561719591994533 0.000379963736828524
      0.118062187565  0.00075122328628621       0.051153205622    0.000852651373305   0.0518960269865454  0.00036129514842223
      0.119484522253 0.000751238443281329      0.0459089655654    0.000805749994439   0.0473329606412046 0.000343767422797955
      0.120906853302 0.000751253781433706      0.0424490783547    0.000773512018533   0.0425558023620695 0.000327297324878747
      0.122329180667  0.00075126930073036      0.0366782244134    0.000717022413013   0.0376635342879137 0.000311808666930568
      0.123751504306 0.000751285001158187       0.032705241141    0.000675774607553    0.032770516080223 0.000297231630308627
      0.125173824175 0.000751300882703912      0.0279482240383    0.000623256835424   0.0279964187367985 0.000283502160326282
      0.126596140232 0.000751316945354128      0.0231236178092    0.000565581758074   0.0234570041976976 0.000270561425354798
      0.128018452432 0.000751333189095245      0.0191641523513    0.000513885901012   0.0192561075411983 0.000258355332785979
      0.129440760732 0.000751349613913542         0.0141359001    0.000440271397973   0.0154791638395654 0.000246834095092451
      0.130863065089 0.000751366219795145      0.0120352606732    5.97466838036e-05   0.0121885651066449 0.000235951840396396
       0.13228536546 0.000751383006726032     0.00934358447845    4.93090836114e-05  0.00942102803765788 0.000225666262432165
      0.133707661802 0.000751399974692025       0.007159964344    4.06431350028e-05  0.00718700984661519  0.00021593830551572
       0.13512995407 0.000751417123678775      0.0055887953509    3.42157019178e-05   0.0054720479654118 0.000206731880665982
      0.136552242222 0.000751434453671812     0.00434438216249    2.89307750414e-05  0.00423974601142521 0.000198013609418955
      0.137974526215 0.000751451964656508     0.00361685846449    2.57148597532e-05   0.0034360081866204 0.000189752592446649
      0.139396806004 0.000751469656618054      0.0032326339746    2.39622827213e-05  0.00299405438957344   0.0001819202002558
      0.140819081547 0.000751487529541531     0.00306589923611    2.31866348511e-05  0.00283973538639819 0.000174489883625237
      0.142241352801 0.000751505583411852     0.00318062969614    2.37193714533e-05  0.00289670666283894 0.000167437001802082
      0.143663619722 0.000751523818213769     0.00337496823168    2.47063536734e-05  0.00309109808583404 0.000160738666552755
      0.145085882266 0.000751542233931882      0.0036949756928    2.61589950027e-05  0.00335541715266793 0.000154373600467818
      0.146508140391 0.000751560830550665     0.00397145575941    2.73928607322e-05  0.00363152941602113 0.000148322008081556
      0.147930394053 0.000751579608054414     0.00421400608699    2.84612866375e-05  0.00387265709874701 0.000142565458554037
      0.149352643209  0.00075159856642729     0.00432489280365    2.89462301701e-05  0.00404441735958211 0.000137086778717205
      0.150774887815 0.000751617705653286     0.00441551630015    2.93399338413e-05  0.00412498154071376  0.00013186995551993
      0.152197127829 0.000751637025716273     0.00440570235966    2.92971621979e-05  0.00410447645729696 0.000126900046922567
      0.153619363206 0.000751656526599929     0.00423975754483    2.85742069983e-05  0.00398377129143202 0.000122163100477079
      0.155041593904 0.000751676208287825     0.00402447267002    2.76282468751e-05  0.00377280289957733 0.000117646078797616
      0.156463819879  0.00075169607076335     0.00376295683488    2.64655617869e-05  0.00348859218155359 0.000113336791346771
      0.157886041087 0.000751716114009744     0.00337408957571    2.47042895404e-05   0.0031530976502512 0.000109223831891086
      0.159308257487 0.000751736338010139     0.00308011744466    2.33425864036e-05  0.00279104150383291 0.000105296521123598
      0.160730469033 0.000751756742747443     0.00261365787108    2.11158744366e-05  0.00242782941005732 0.000101544854013179
      0.162152675683 0.000751777328204473      0.0022931908026    1.95260552448e-05  0.00208766827139916 9.79594513775859e-05
      0.163574877394  0.00075179809436388     0.00195542091802     1.7781265055e-05  0.00179196665014562 9.45315153841033e-05
      0.164997074122 0.000751819041208152     0.00171939970045    1.65088742694e-05  0.00155808048528987 9.12527885788361e-05
      0.166419265824 0.000751840168719637     0.00153650353356    1.54844721767e-05  0.00139844284527339 8.81155161432374e-05
      0.167841452457 0.000751861476880536     0.00142038542022    1.48131868323e-05  0.00132009170137678 8.51124111077111e-05
      0.169263633977 0.000751882965672885     0.00142606290655    1.48464289689e-05  0.00132458544099473 8.22366222595735e-05
       0.17068581034 0.000751904635078568      0.0014925706036    1.52325652606e-05   0.0014082736282764 7.94817045109299e-05
      0.172107981505 0.000751926485079365     0.00161643442974    1.59373580224e-05  0.00156287186704693  7.6841591518359e-05
      0.173530147426 0.000751948515656829     0.00180153400168    1.69585580227e-05  0.00177627574609311 7.43105703885092e-05
      0.174952308062 0.000751970726792442     0.00205381716225    1.82992953111e-05  0.00203354050578614 7.18832582430957e-05
      0.176374463368  0.00075199311846747      0.0023343525766    1.97344470814e-05   0.0023179504155235 6.95545805551782e-05
      0.177796613302 0.000752015690663082     0.00260542551408    2.10763821058e-05  0.00261210453722825 6.73197510513072e-05
      0.179218757819 0.000752038443360243     0.00289958689434    2.24920938466e-05  0.00289895269539595 6.51742531002245e-05
      0.180640896878 0.000752061376539838     0.00321740446812    2.39825517742e-05  0.00316272597682506  6.3113822427379e-05
      0.182063030433 0.000752084490182517     0.00343099961467    2.49651513109e-05  0.00338971864861187 6.11344310926298e-05
      0.183485158443 0.000752107784268866     0.00358430526397    2.56621682408e-05  0.00356889184872224 5.92322725806727e-05
      0.184907280863 0.000752131258779252      0.0037512639166      2.641398538e-05  0.00369228268724031 5.74037479695599e-05
      0.186329397651 0.000752154913693944     0.00387658766861    2.69733282329e-05  0.00375521475976844 5.56454530460397e-05
      0.187751508763 0.000752178748993029     0.00385267463694    2.68668280435e-05  0.00375631693685205 5.39541663309167e-05
      0.189173614156  0.00075220276465646     0.00376766103801    2.64872359174e-05  0.00369736639412997 5.23268379193866e-05
      0.190595713786 0.000752226960664025     0.00367332014005    2.60639193999e-05  0.00358297904640837 5.07605790900714e-05
       0.19201780761 0.000752251336995379     0.00348570625226    2.52151940827e-05  0.00342017586578991 4.92526526142531e-05
      0.193439895585 0.000752275893630027     0.00333914599882    2.45448440255e-05  0.00321785706922796 4.78004637205969e-05
      0.194861977668 0.000752300630547327     0.00308701153477    2.33760521939e-05  0.00298621795805234 4.64015516621483e-05
      0.196284053814 0.000752325547726453     0.00285420755945    2.22766508554e-05  0.00273614039009246 4.50535818441436e-05
      0.197706123982 0.000752350645146498     0.00256368247262    2.08728404235e-05  0.00247859256961994 4.37543384621786e-05
      0.199128188127 0.000752375922786338     0.00231195354194    1.96222677466e-05  0.00222406718031514 4.25017176339589e-05
      0.200550246206 0.000752401380624735     0.00203928550175    1.82246477035e-05    0.001982083984198 4.12937209634573e-05
      0.201972298176 0.000752427018640302      0.0018164982344    1.70414620999e-05  0.00176077808416506 4.01284495262893e-05
      0.203394343994 0.000752452836811504     0.00159668488852    1.58290040676e-05   0.0015665893079258 3.90040982374049e-05
      0.204816383616 0.000752478835116639     0.00142823927619    1.48627561179e-05  0.00140406193393426 3.79189505766448e-05
      0.206238416999 0.000752505013533874     0.00128250360926     1.3995115781e-05  0.00127575757207287 3.68713736440285e-05
      0.207660444099  0.00075253137204121      0.0011998195825    1.34864695972e-05  0.00118227779832884 3.58598135271027e-05
      0.209082464874 0.000752557910616538      0.0011205150117    1.29866515456e-05  0.00112238746991245 3.48827909522004e-05
       0.21050447928 0.000752584629237562     0.00109082085699    1.27957157118e-05   0.0010932248354546 3.39388972085433e-05
      0.211926487274 0.000752611527881857     0.00108626985584    1.27656916617e-05  0.00109058084296036 3.30267903169788e-05
      0.213348488811 0.000752638606526812     0.00109142915849     6.3819630991e-06  0.00110922760152164  3.2145191435493e-05
       0.21477048385 0.000752665865149744     0.00112026718402    6.87719049242e-06  0.00114327482564217 3.12928814760943e-05
      0.216192472347 0.000752693303727766     0.00116189757771    7.05034664085e-06  0.00118653324965562 3.04686979323891e-05
      0.217614454258 0.000752720922237841     0.00121623472667     7.2749655485e-06  0.00123286532107594  2.9671531889986e-05
       0.21903642954 0.000752748720656806     0.00125786512065    7.44612931396e-06  0.00127650577612464 2.89003252149926e-05
       0.22045839815 0.000752776698961349     0.00129284474508     7.5893713891e-06  0.00131233773750357  2.8154067908771e-05
      0.221880360044  0.00075280485712799     0.00133221135443    7.74968165455e-06  0.00133611350400879 2.74317956169884e-05
      0.223302315179 0.000752833195133124      0.0013433797814    7.79494488572e-06  0.00134461297617871 2.67325872815598e-05
      0.224724263513 0.000752861712953016     0.00132416013838    7.71661449338e-06  0.00133573645449961 2.60555629288711e-05
         0.226146205 0.000752890410563704      0.0013026424649     7.6287601863e-06  0.00130853216099828 2.53998815868371e-05
      0.227568139599 0.000752919287941181     0.00128050297122    7.53817077327e-06  0.00126316210988644 2.47647393139222e-05
      0.228990067266 0.000752948345061231     0.00119781443798    7.19851343166e-06  0.00120081276780918 2.41493673472432e-05
      0.230411987957 0.000752977581899491       0.001134456394    6.93603181628e-06  0.00112355921077474  2.3553030349635e-05
       0.23183390163 0.000753006998431492     0.00106001373391    6.62480067862e-06  0.00103419315132663 2.29750247550392e-05
      0.233255808241 0.000753036594632577     0.00094615309734    6.14183828876e-06 0.000936026250538639 2.24146772080209e-05
      0.234677707746 0.000753066370477943    0.000848486814714    5.71950179159e-06 0.000832680543937702 2.18713430867796e-05
      0.236099600102  0.00075309632594266    0.000743412765034     5.2542046191e-06 0.000727877626418456 2.13444051074649e-05
      0.237521485267 0.000753126461001672     0.00063814946533    4.77397584665e-06 0.000625237500956899 2.08332720048057e-05
      0.238943363196 0.000753156775629716    0.000536995583825    4.29479165684e-06 0.000528096766931901 2.03373772854511e-05
      0.240365233847 0.000753187269801442     0.00045000838202    3.86380973128e-06  0.00043935418860925 1.98561780447924e-05
      0.241787097175 0.000753217943491293    0.000363751142256    3.41238843721e-06  0.00036134974807792 1.93891538511184e-05
      0.243208953139 0.000753248796673652    0.000298697963644    3.04975269737e-06 0.000295781151933939 1.89358056846783e-05
      0.244630801693 0.000753279829322644    0.000242972083755    2.71741058142e-06 0.000243659558240915  1.8495654937893e-05
      0.246052642796  0.00075331104141236    0.000198736354524    2.43356797683e-06 0.000205304125279029   1.806824246205e-05
      0.247474476404 0.000753342432916679    0.000174182577659    2.26554737987e-06 0.000180372982708449 1.76531276692483e-05
      0.248896302473 0.000753374003809332    0.000159767168989    2.16240641046e-06 0.000167926474533084 1.72498876775588e-05
      0.250318120961 0.000753405754063953    0.000153719294349    2.11814303233e-06  0.00016651711292151 1.68581165006139e-05
      0.251739931823 0.000753437683653959    0.000153051513857    2.11314362341e-06 0.000174299661011147 1.64774242806415e-05
      0.253161735017 0.000753469792552689     0.00017290379107    2.25593599085e-06 0.000189154164593647 1.61074365575981e-05
      0.254583530499 0.000753502080733295    0.000195486668809    2.41079482605e-06 0.000208814579403048 1.57477935782507e-05
      0.256005318226 0.000753534548168803    0.000217420690923    2.55480813452e-06 0.000230995870780954 1.53981496379737e-05
      0.257427098154 0.000753567194832071    0.000239514222915    2.69494330267e-06 0.000253513052555776 1.50581724567822e-05
      0.258848870241 0.000753600020695859    0.000256498017476     2.7995896412e-06 0.000274386522526555 1.47275425852346e-05
      0.260270634443 0.000753633025732736    0.000275266165154    2.91238863737e-06 0.000291929170866996 1.44059528414011e-05
      0.261692390717 0.000753666209915148    0.000288951611052    2.99306016794e-06  0.00030481200895203 1.40931077739416e-05
      0.263114139019 0.000753699573215374    0.000300311991392    3.05910247919e-06 0.000312106409875955  1.3788723152611e-05
      0.264535879306  0.00075373311560557     0.00029936304069    3.05328890917e-06 0.000313302395056833 1.34925254827134e-05
      0.265957611535 0.000753766837057748    0.000293953207578    3.02171931466e-06 0.000308303674865848 1.32042515437243e-05
      0.267379335663 0.000753800737543776    0.000283379565175    2.95978246281e-06 0.000297401297638845 1.29236479499207e-05
      0.268801051645  0.00075383481703533    0.000266019974526    2.85657438288e-06 0.000281228733080257  1.2650470732453e-05
       0.27022275944 0.000753869075504036    0.000248254848844    2.74849659603e-06 0.000260701977936759 1.23844849398116e-05
