#      z (A) rho (1e-6/A2) irho (1e-6/A2)
-42.84232562  20.07646257   0.46777133
-42.74232562  20.07661272   0.46799834
-42.64232562  20.07676604   0.46823016
-42.54232562  20.07692260   0.46846688
-42.44232562  20.07708246   0.46870859
-42.34232562  20.07724569   0.46895539
-42.24232562  20.07741233   0.46920736
-42.14232562  20.07758247   0.46946460
-42.04232562  20.07775616   0.46972721
-41.94232562  20.07793346   0.46999530
-41.84232562  20.07811446   0.47026895
-41.74232562  20.07829920   0.47054828
-41.64232562  20.07848776   0.47083339
-41.54232562  20.07868021   0.47112437
-41.44232562  20.07887662   0.47142134
-41.34232562  20.07907707   0.47172441
-41.24232562  20.07928162   0.47203369
-41.14232562  20.07949035   0.47234928
-41.04232562  20.07970333   0.47267131
-40.94232562  20.07992064   0.47299988
-40.84232562  20.08014236   0.47333511
-40.74232562  20.08036856   0.47367713
-40.64232562  20.08059932   0.47402605
-40.54232562  20.08083474   0.47438199
-40.44232562  20.08107488   0.47474507
-40.34232562  20.08131982   0.47511543
-40.24232562  20.08156967   0.47549319
-40.14232562  20.08182449   0.47587848
-40.04232562  20.08208437   0.47627142
-39.94232562  20.08234941   0.47667216
-39.84232562  20.08261969   0.47708082
-39.74232562  20.08289531   0.47749754
-39.64232562  20.08317634   0.47792247
-39.54232562  20.08346290   0.47835573
-39.44232562  20.08375506   0.47879748
-39.34232562  20.08405293   0.47924785
-39.24232562  20.08435660   0.47970700
-39.14232562  20.08466617   0.48017507
-39.04232562  20.08498174   0.48065221
-38.94232562  20.08530341   0.48113857
-38.84232562  20.08563128   0.48163430
-38.74232562  20.08596546   0.48213957
-38.64232562  20.08630604   0.48265453
-38.54232562  20.08665314   0.48317934
-38.44232562  20.08700686   0.48371416
-38.34232562  20.08736731   0.48425916
-38.24232562  20.08773460   0.48481450
-38.14232562  20.08810885   0.48538035
-38.04232562  20.08849016   0.48595689
-37.94232562  20.08887865   0.48654428
-37.84232562  20.08927443   0.48714270
-37.74232562  20.08967763   0.48775233
-37.64232562  20.09008836   0.48837335
-37.54232562  20.09050674   0.48900593
-37.44232562  20.09093289   0.48965027
-37.34232562  20.09136694   0.49030654
-37.24232562  20.09180901   0.49097495
-37.14232562  20.09225923   0.49165567
-37.04232562  20.09271772   0.49234890
-36.94232562  20.09318461   0.49305484
-36.84232562  20.09366004   0.49377369
-36.74232562  20.09414414   0.49450563
-36.64232562  20.09463704   0.49525089
-36.54232562  20.09513887   0.49600965
-36.44232562  20.09564977   0.49678214
-36.34232562  20.09616989   0.49756855
-36.24232562  20.09669936   0.49836910
-36.14232562  20.09723832   0.49918400
-36.04232562  20.09778692   0.50001348
-35.94232562  20.09834530   0.50085774
-35.84232562  20.09891361   0.50171701
-35.74232562  20.09949199   0.50259152
-35.64232562  20.10008060   0.50348150
-35.54232562  20.10067959   0.50438716
-35.44232562  20.10128911   0.50530874
-35.34232562  20.10190931   0.50624648
-35.24232562  20.10254036   0.50720061
-35.14232562  20.10318240   0.50817138
-35.04232562  20.10383561   0.50915901
-34.94232562  20.10450013   0.51016377
-34.84232562  20.10517614   0.51118588
-34.74232562  20.10586380   0.51222561
-34.64232562  20.10656327   0.51328320
-34.54232562  20.10727472   0.51435891
-34.44232562  20.10799833   0.51545300
-34.34232562  20.10873426   0.51656572
-34.24232562  20.10948269   0.51769734
-34.14232562  20.11024379   0.51884811
-34.04232562  20.11101775   0.52001832
-33.94232562  20.11180472   0.52120822
-33.84232562  20.11260491   0.52241809
-33.74232562  20.11341848   0.52364820
-33.64232562  20.11424563   0.52489884
-33.54232562  20.11508654   0.52617028
-33.44232562  20.11594139   0.52746280
-33.34232562  20.11681037   0.52877669
-33.24232562  20.11769368   0.53011224
-33.14232562  20.11859150   0.53146974
-33.04232562  20.11950403   0.53284948
-32.94232562  20.12043147   0.53425175
-32.84232562  20.12137401   0.53567686
-32.74232562  20.12233185   0.53712511
-32.64232562  20.12330520   0.53859679
-32.54232562  20.12429425   0.54009222
-32.44232562  20.12529920   0.54161170
-32.34232562  20.12632027   0.54315555
-32.24232562  20.12735767   0.54472407
-32.14232562  20.12841159   0.54631759
-32.04232562  20.12948226   0.54793643
-31.94232562  20.13056988   0.54958089
-31.84232562  20.13167467   0.55125132
-31.74232562  20.13279684   0.55294804
-31.64232562  20.13393662   0.55467137
-31.54232562  20.13509422   0.55642164
-31.44232562  20.13626986   0.55819920
-31.34232562  20.13746377   0.56000437
-31.24232562  20.13867617   0.56183750
-31.14232562  20.13990728   0.56369893
-31.04232562  20.14115734   0.56558900
-30.94232562  20.14242657   0.56750806
-30.84232562  20.14371520   0.56945646
-30.74232562  20.14502347   0.57143455
-30.64232562  20.14635162   0.57344269
-30.54232562  20.14769986   0.57548122
-30.44232562  20.14906845   0.57755051
-30.34232562  20.15045763   0.57965092
-30.24232562  20.15186762   0.58178282
-30.14232562  20.15329868   0.58394656
-30.04232562  20.15475105   0.58614252
-29.94232562  20.15622497   0.58837107
-29.84232562  20.15772069   0.59063259
-29.74232562  20.15923846   0.59292743
-29.64232562  20.16077852   0.59525599
-29.54232562  20.16234114   0.59761864
-29.44232562  20.16392655   0.60001577
-29.34232562  20.16553502   0.60244775
-29.24232562  20.16716679   0.60491497
-29.14232562  20.16882214   0.60741783
-29.04232562  20.17050130   0.60995671
-28.94232562  20.17220455   0.61253200
-28.84232562  20.17393215   0.61514410
-28.74232562  20.17568435   0.61779340
-28.64232562  20.17746141   0.62048031
-28.54232562  20.17926362   0.62320522
-28.44232562  20.18109122   0.62596853
-28.34232562  20.18294449   0.62877065
-28.24232562  20.18482369   0.63161199
-28.14232562  20.18672910   0.63449294
-28.04232562  20.18866099   0.63741393
-27.94232562  20.19061962   0.64037535
-27.84232562  20.19260527   0.64337763
-27.74232562  20.19461822   0.64642118
-27.64232562  20.19665874   0.64950642
-27.54232562  20.19872710   0.65263376
-27.44232562  20.20082358   0.65580361
-27.34232562  20.20294847   0.65901641
-27.24232562  20.20510203   0.66227258
-27.14232562  20.20728456   0.66557253
-27.04232562  20.20949632   0.66891669
-26.94232562  20.21173761   0.67230549
-26.84232562  20.21400871   0.67573936
-26.74232562  20.21630989   0.67921872
-26.64232562  20.21864145   0.68274401
-26.54232562  20.22100367   0.68631565
-26.44232562  20.22339683   0.68993408
-26.34232562  20.22582122   0.69359973
-26.24232562  20.22827713   0.69731304
-26.14232562  20.23076485   0.70107443
-26.04232562  20.23328466   0.70488435
-25.94232562  20.23583685   0.70874324
-25.84232562  20.23842172   0.71265152
-25.74232562  20.24103954   0.71660965
-25.64232562  20.24369063   0.72061805
-25.54232562  20.24637525   0.72467717
-25.44232562  20.24909371   0.72878744
-25.34232562  20.25184629   0.73294932
-25.24232562  20.25463330   0.73716323
-25.14232562  20.25745501   0.74142962
-25.04232562  20.26031172   0.74574894
-24.94232562  20.26320373   0.75012162
-24.84232562  20.26613133   0.75454811
-24.74232562  20.26909480   0.75902885
-24.64232562  20.27209445   0.76356427
-24.54232562  20.27513056   0.76815484
-24.44232562  20.27820343   0.77280098
-24.34232562  20.28131335   0.77750314
-24.24232562  20.28446061   0.78226176
-24.14232562  20.28764551   0.78707728
-24.04232562  20.29086833   0.79195015
-23.94232562  20.29412937   0.79688080
-23.84232562  20.29742892   0.80186968
-23.74232562  20.30076727   0.80691722
-23.64232562  20.30414471   0.81202387
-23.54232562  20.30756154   0.81719007
-23.44232562  20.31101803   0.82241624
-23.34232562  20.31451449   0.82770284
-23.24232562  20.31805119   0.83305029
-23.14232562  20.32162843   0.83845903
-23.04232562  20.32524650   0.84392950
-22.94232562  20.32890567   0.84946213
-22.84232562  20.33260625   0.85505735
-22.74232562  20.33634850   0.86071559
-22.64232562  20.34013272   0.86643728
-22.54232562  20.34395918   0.87222285
-22.44232562  20.34782818   0.87807272
-22.34232562  20.35173998   0.88398732
-22.24232562  20.35569488   0.88996707
-22.14232562  20.35969315   0.89601240
-22.04232562  20.36373506   0.90212372
-21.94232562  20.36782089   0.90830145
-21.84232562  20.37195092   0.91454601
-21.74232562  20.37612543   0.92085781
-21.64232562  20.38034467   0.92723725
-21.54232562  20.38460893   0.93368476
-21.44232562  20.38891847   0.94020073
-21.34232562  20.39327356   0.94678557
-21.24232562  20.39767447   0.95343969
-21.14232562  20.40212145   0.96016347
-21.04232562  20.40661478   0.96695732
-20.94232562  20.41115471   0.97382164
-20.84232562  20.41574149   0.98075680
-20.74232562  20.42037540   0.98776320
-20.64232562  20.42505667   0.99484123
-20.54232562  20.42978557   1.00199126
-20.44232562  20.43456233   1.00921368
-20.34232562  20.43938723   1.01650885
-20.24232562  20.44426048   1.02387716
-20.14232562  20.44918235   1.03131896
-20.04232562  20.45415307   1.03883463
-19.94232562  20.45917289   1.04642452
-19.84232562  20.46424202   1.05408899
-19.74232562  20.46936072   1.06182840
-19.64232562  20.47452921   1.06964309
-19.54232562  20.47974772   1.07753342
-19.44232562  20.48501648   1.08549971
-19.34232562  20.49033570   1.09354231
-19.24232562  20.49570562   1.10166155
-19.14232562  20.50112644   1.10985777
-19.04232562  20.50659838   1.11813127
-18.94232562  20.51212165   1.12648239
-18.84232562  20.51769646   1.13491143
-18.74232562  20.52332302   1.14341872
-18.64232562  20.52900152   1.15200454
-18.54232562  20.53473217   1.16066921
-18.44232562  20.54051516   1.16941302
-18.34232562  20.54635068   1.17823625
-18.24232562  20.55223892   1.18713920
-18.14232562  20.55818007   1.19612215
-18.04232562  20.56417431   1.20518535
-17.94232562  20.57022181   1.21432910
-17.84232562  20.57632275   1.22355365
-17.74232562  20.58247730   1.23285925
-17.64232562  20.58868563   1.24224616
-17.54232562  20.59494789   1.25171463
-17.44232562  20.60126426   1.26126489
-17.34232562  20.60763487   1.27089718
-17.24232562  20.61405989   1.28061174
-17.14232562  20.62053947   1.29040877
-17.04232562  20.62707373   1.30028850
-16.94232562  20.63366283   1.31025113
-16.84232562  20.64030689   1.32029687
-16.74232562  20.64700606   1.33042592
-16.64232562  20.65376044   1.34063846
-16.54232562  20.66057017   1.35093469
-16.44232562  20.66743536   1.36131476
-16.34232562  20.67435612   1.37177887
-16.24232562  20.68133256   1.38232716
-16.14232562  20.68836478   1.39295979
-16.04232562  20.69545289   1.40367692
-15.94232562  20.70259697   1.41447869
-15.84232562  20.70979712   1.42536522
-15.74232562  20.71705342   1.43633665
-15.64232562  20.72436594   1.44739310
-15.54232562  20.73173477   1.45853467
-15.44232562  20.73915997   1.46976148
-15.34232562  20.74664161   1.48107362
-15.24232562  20.75417974   1.49247119
-15.14232562  20.76177442   1.50395425
-15.04232562  20.76942571   1.51552289
-14.94232562  20.77713363   1.52717718
-14.84232562  20.78489824   1.53891717
-14.74232562  20.79271956   1.55074291
-14.64232562  20.80059762   1.56265445
-14.54232562  20.80853246   1.57465181
-14.44232562  20.81652407   1.58673503
-14.34232562  20.82457248   1.59890412
-14.24232562  20.83267768   1.61115909
-14.14232562  20.84083969   1.62349995
-14.04232562  20.84905850   1.63592668
-13.94232562  20.85733409   1.64843926
-13.84232562  20.86566645   1.66103769
-13.74232562  20.87405555   1.67372191
-13.64232562  20.88250138   1.68649190
-13.54232562  20.89100390   1.69934759
-13.44232562  20.89956306   1.71228894
-13.34232562  20.90817882   1.72531586
-13.24232562  20.91685113   1.73842829
-13.14232562  20.92557994   1.75162614
-13.04232562  20.93436518   1.76490931
-12.94232562  20.94320678   1.77827771
-12.84232562  20.95210468   1.79173120
-12.74232562  20.96105877   1.80526969
-12.64232562  20.97006899   1.81889303
-12.54232562  20.97913524   1.83260108
-12.44232562  20.98825741   1.84639369
-12.34232562  20.99743541   1.86027071
-12.24232562  21.00666913   1.87423197
-12.14232562  21.01595843   1.88827729
-12.04232562  21.02530321   1.90240648
-11.94232562  21.03470334   1.91661934
-11.84232562  21.04415866   1.93091568
-11.74232562  21.05366906   1.94529527
-11.64232562  21.06323436   1.95975790
-11.54232562  21.07285443   1.97430333
-11.44232562  21.08252910   1.98893131
-11.34232562  21.09225821   2.00364159
-11.24232562  21.10204157   2.01843391
-11.14232562  21.11187901   2.03330800
-11.04232562  21.12177035   2.04826358
-10.94232562  21.13171539   2.06330035
-10.84232562  21.14171393   2.07841802
-10.74232562  21.15176577   2.09361627
-10.64232562  21.16187069   2.10889479
-10.54232562  21.17202849   2.12425325
-10.44232562  21.18223893   2.13969131
-10.34232562  21.19250178   2.15520861
-10.24232562  21.20281681   2.17080481
-10.14232562  21.21318377   2.18647953
-10.04232562  21.22360242   2.20223239
 -9.94232562  21.23407250   2.21806302
 -9.84232562  21.24459375   2.23397101
 -9.74232562  21.25516589   2.24995596
 -9.64232562  21.26578866   2.26601746
 -9.54232562  21.27646177   2.28215507
 -9.44232562  21.28718494   2.29836836
 -9.34232562  21.29795787   2.31465690
 -9.24232562  21.30878026   2.33102022
 -9.14232562  21.31965182   2.34745787
 -9.04232562  21.33057221   2.36396937
 -8.94232562  21.34154113   2.38055424
 -8.84232562  21.35255825   2.39721199
 -8.74232562  21.36362325   2.41394212
 -8.64232562  21.37473577   2.43074413
 -8.54232562  21.38589549   2.44761748
 -8.44232562  21.39710205   2.46456166
 -8.34232562  21.40835510   2.48157612
 -8.24232562  21.41965427   2.49866033
 -8.14232562  21.43099920   2.51581372
 -8.04232562  21.44238952   2.53303574
 -7.94232562  21.45382484   2.55032580
 -7.84232562  21.46530478   2.56768333
 -7.74232562  21.47682895   2.58510773
 -7.64232562  21.48839696   2.60259841
 -7.54232562  21.50000839   2.62015475
 -7.44232562  21.51166285   2.63777615
 -7.34232562  21.52335991   2.65546196
 -7.24232562  21.53509917   2.67321156
 -7.14232562  21.54688018   2.69102431
 -7.04232562  21.55870253   2.70889955
 -6.94232562  21.57056577   2.72683662
 -6.84232562  21.58246946   2.74483485
 -6.74232562  21.59441316   2.76289357
 -6.64232562  21.60639641   2.78101210
 -6.54232562  21.61841875   2.79918972
 -6.44232562  21.63047972   2.81742576
 -6.34232562  21.64257885   2.83571949
 -6.24232562  21.65471566   2.85407021
 -6.14232562  21.66688968   2.87247717
 -6.04232562  21.67910043   2.89093966
 -5.94232562  21.69134740   2.90945693
 -5.84232562  21.70363011   2.92802824
 -5.74232562  21.71594806   2.94665282
 -5.64232562  21.72830074   2.96532991
 -5.54232562  21.74068764   2.98405875
 -5.44232562  21.75310825   3.00283856
 -5.34232562  21.76556205   3.02166855
 -5.24232562  21.77804851   3.04054793
 -5.14232562  21.79056712   3.05947590
 -5.04232562  21.80311733   3.07845166
 -4.94232562  21.81569860   3.09747439
 -4.84232562  21.82831041   3.11654328
 -4.74232562  21.84095219   3.13565750
 -4.64232562  21.85362341   3.15481622
 -4.54232562  21.86632350   3.17401860
 -4.44232562  21.87905191   3.19326379
 -4.34232562  21.89180807   3.21255095
 -4.24232562  21.90459143   3.23187922
 -4.14232562  21.91740140   3.25124774
 -4.04232562  21.93023742   3.27065564
 -3.94232562  21.94309890   3.29010205
 -3.84232562  21.95598528   3.30958608
 -3.74232562  21.96889595   3.32910686
 -3.64232562  21.98183034   3.34866349
 -3.54232562  21.99478784   3.36825508
 -3.44232562  22.00776788   3.38788073
 -3.34232562  22.02076984   3.40753953
 -3.24232562  22.03379313   3.42723057
 -3.14232562  22.04683713   3.44695295
 -3.04232562  22.05990126   3.46670574
 -2.94232562  22.07298488   3.48648802
 -2.84232562  22.08608740   3.50629885
 -2.74232562  22.09920818   3.52613732
 -2.64232562  22.11234663   3.54600248
 -2.54232562  22.12550210   3.56589340
 -2.44232562  22.13867399   3.58580913
 -2.34232562  22.15186166   3.60574872
 -2.24232562  22.16506449   3.62571123
 -2.14232562  22.17828184   3.64569569
 -2.04232562  22.19151308   3.66570116
 -1.94232562  22.20475758   3.68572668
 -1.84232562  22.21801469   3.70577128
 -1.74232562  22.23128379   3.72583399
 -1.64232562  22.24456423   3.74591385
 -1.54232562  22.25785537   3.76600988
 -1.44232562  22.27115657   3.78612112
 -1.34232562  22.28446717   3.80624659
 -1.24232562  22.29778654   3.82638531
 -1.14232562  22.31111403   3.84653630
 -1.04232562  22.32444898   3.86669858
 -0.94232562  22.33779075   3.88687117
 -0.84232562  22.35113869   3.90705308
 -0.74232562  22.36449214   3.92724333
 -0.64232562  22.37785045   3.94744093
 -0.54232562  22.39121297   3.96764489
 -0.44232562  22.40457904   3.98785422
 -0.34232562  22.41794801   4.00806794
 -0.24232562  22.43131923   4.02828505
 -0.14232562  22.44469203   4.04850457
 -0.04232562  22.45806577   4.06872549
  0.05767438  22.47143979   4.08894684
  0.15767438  22.48481342   4.10916761
  0.25767438  22.49818603   4.12938682
  0.35767438  22.51155694   4.14960347
  0.45767438  22.52492551   4.16981658
  0.55767438  22.53829108   4.19002516
  0.65767438  22.55165300   4.21022821
  0.75767438  22.56501060   4.23042474
  0.85767438  22.57836325   4.25061377
  0.95767438  22.59171028   4.27079432
  1.05767438  22.60505105   4.29096539
  1.15767438  22.61838490   4.31112600
  1.25767438  22.63171118   4.33127517
  1.35767438  22.64502924   4.35141192
  1.45767438  22.65833845   4.37153527
  1.55767438  22.67163814   4.39164423
  1.65767438  22.68492768   4.41173785
  1.75767438  22.69820642   4.43181514
  1.85767438  22.71147372   4.45187514
  1.95767438  22.72472895   4.47191687
  2.05767438  22.73797145   4.49193937
  2.15767438  22.75120060   4.51194168
  2.25767438  22.76441576   4.53192284
  2.35767438  22.77761630   4.55188189
  2.45767438  22.79080159   4.57181788
  2.55767438  22.80397100   4.59172986
  2.65767438  22.81712390   4.61161688
  2.75767438  22.83025968   4.63147801
  2.85767438  22.84337770   4.65131230
  2.95767438  22.85647736   4.67111881
  3.05767438  22.86955803   4.69089662
  3.15767438  22.88261910   4.71064480
  3.25767438  22.89565997   4.73036243
  3.35767438  22.90868002   4.75004859
  3.45767438  22.92167866   4.76970236
  3.55767438  22.93465527   4.78932284
  3.65767438  22.94760927   4.80890912
  3.75767438  22.96054005   4.82846030
  3.85767438  22.97344704   4.84797550
  3.95767438  22.98632963   4.86745382
  4.05767438  22.99918724   4.88689437
  4.15767438  23.01201930   4.90629628
  4.25767438  23.02482522   4.92565868
  4.35767438  23.03760444   4.94498069
  4.45767438  23.05035638   4.96426147
  4.55767438  23.06308048   4.98350015
  4.65767438  23.07577618   5.00269588
  4.75767438  23.08844291   5.02184782
  4.85767438  23.10108013   5.04095514
  4.95767438  23.11368728   5.06001700
  5.05767438  23.12626383   5.07903257
  5.15767438  23.13880922   5.09800105
  5.25767438  23.15132292   5.11692161
  5.35767438  23.16380441   5.13579346
  5.45767438  23.17625315   5.15461580
  5.55767438  23.18866862   5.17338784
  5.65767438  23.20105030   5.19210879
  5.75767438  23.21339768   5.21077787
  5.85767438  23.22571026   5.22939432
  5.95767438  23.23798751   5.24795738
  6.05767438  23.25022896   5.26646629
  6.15767438  23.26243409   5.28492031
  6.25767438  23.27460244   5.30331869
  6.35767438  23.28673350   5.32166070
  6.45767438  23.29882680   5.33994563
  6.55767438  23.31088187   5.35817274
  6.65767438  23.32289824   5.37634135
  6.75767438  23.33487545   5.39445073
  6.85767438  23.34681304   5.41250021
  6.95767438  23.35871055   5.43048910
  7.05767438  23.37056754   5.44841673
  7.15767438  23.38238357   5.46628242
  7.25767438  23.39415821   5.48408551
  7.35767438  23.40589101   5.50182537
  7.45767438  23.41758156   5.51950133
  7.55767438  23.42922944   5.53711278
  7.65767438  23.44083424   5.55465909
  7.75767438  23.45239554   5.57213963
  7.85767438  23.46391295   5.58955381
  7.95767438  23.47538607   5.60690102
  8.05767438  23.48681451   5.62418068
  8.15767438  23.49819788   5.64139220
