# intensity: 0.975588991568164
# background: 5.75396683700413e-08
#           Q (1/A)             dQ (1/A)                    R                   dR               theory              fresnel
  0.0100976740941405  8.9479581888303e-05    0.965405862123547   0.0102637374386372    0.974597076678874    0.874705775460209
  0.0105407405644655 9.25914509055987e-05    0.947539303417396   0.0100907559016562     0.96353752913545    0.389655972665526
  0.0109749650582671 9.56521780732915e-05    0.940726447667846   0.0100311390863223    0.954243703484172    0.214503694118603
  0.0114136096090078 9.87540274335797e-05    0.943196880160382   0.0100146439767608     0.94471076809061    0.144133856373873
  0.0118522550910711 0.000101864976747688    0.927143922545752   0.0099112817796712    0.933844459465055    0.104621886927216
  0.0122908987104893 0.000104984231814592    0.929971594893802  0.00994397220310285    0.920948481508371    0.079443842264149
  0.0127295413985848 0.000108111056955349    0.911481053038853  0.00975472636838775    0.905343179024665   0.0622173641961229
  0.0131681831553578 0.000111244801404555    0.903875419142294  0.00974313481596232     0.88625445162664   0.0498591737669054
  0.0136068286374211 0.000114384946506908    0.881864959606714  0.00952619266550613    0.862768240533818   0.0406818910959546
  0.0140454713255167 0.000117530930487587    0.860106135399623   0.0093703250032958    0.833815018175269   0.0336831947076858
  0.0144841112196445  0.00012068229785851    0.818651658181809  0.00904447099688934    0.798182431975338    0.028231718791175
  0.0149271506816149 0.000123870345119265    0.773732069419352  0.00867651929476005    0.754142571587513   0.0238702420904923
  0.0153613947331905 0.000126999660171898    0.706975474841862   0.0081041338650115    0.701984479953166   0.0204304569162379
  0.0158000346273184 0.000130164917685057    0.647539433033302  0.00761512167973735    0.639554483402322   0.0175970564209805
  0.0162386763840914 0.000133334152008395    0.566279842779695  0.00689128770447634    0.567536703061702   0.0152624426265511
  0.0166773162782192 0.000136507065251747    0.484236335710795  0.00624118243672319    0.487501472737188   0.0133204558576104
  0.0171159543097019  0.00013968342890202    0.396957214183256   0.0054860434201914    0.402912895123126   0.0116912883175264
  0.0175590254366398 0.000142895146134346    0.309695783755403  0.00466202570344617    0.318048762817799   0.0103008641910352
  0.0179932322353125 0.000146045583051335    0.239471483217171  0.00400809339223876    0.241461121046144  0.00914086910799223
  0.0184362512081861 0.000149200441998054    0.178618276022526  0.00334804371322293    0.175612073811553  0.00812692755464933
  0.0188705064356327 0.000151837383546581    0.124307715934363  0.00271923713701844    0.126688465016294  0.00727036483622623
  0.0193091444671154 0.000154515954356656    0.099045092890099  0.00241466270254372   0.0939365043797334  0.00652049164525001
  0.0197433866560459 0.000157181810171239   0.0857805403277229  0.00222146639418726   0.0765353746481837  0.00587398023597283
  0.0201908145099878 0.000159942535726632   0.0783219314864082  0.00212390079744471   0.0710643109028696  0.00529185414013431
  0.0206250473856926 0.000162634743027303   0.0808119943773635  0.00216736031217497   0.0742421515473307  0.00479607386801165
   0.021068112924695  0.00016539407954436   0.0894066425074025  0.00227521960728526   0.0827184984635957  0.00435022224146274
  0.0214979443699121 0.000168082453670241    0.097453082634656  0.00239121167788489   0.0933175085515401  0.00396737702316447
  0.0219409484416246 0.000191004284355359    0.104520295990221  0.00184987949665795    0.104509437904427  0.00362054729804771
  0.0228182133287191 0.000198661799083419    0.120914187940497   0.0020000825917118     0.12313239252446  0.00303809411255797
  0.0237042475491762 0.000206363204335391    0.125107770984666  0.00200515516963903    0.133315749446876  0.00256373727353753
  0.0245815049856901 0.000214020614834925    0.127937447833639  0.00201111492601274    0.133771684302992  0.00218334270578065
  0.0254412107169628 0.000221662378611353    0.125372898333125  0.00196419145979181    0.125887041680849   0.0018778209765197
   0.026336008682847 0.000229209050082477    0.109628801870852  0.00178376191777833    0.110982311663794  0.00161536330283604
  0.0272044837474823 0.000236804336344619   0.0908306266404736  0.00157867158254206    0.092411306603442  0.00140356380801166
  0.0280729588121176 0.000244616190674345   0.0688879412061204  0.00133144198619139   0.0722648828316124  0.00122591641096832
  0.0289677418768406 0.000252054462647654   0.0513862351439608  0.00112015803421801   0.0522555047237184  0.00107164441188154
  0.0298362094908953 0.000259631544039002   0.0347661635872564 0.000900143373202342   0.0354092467389981 0.000944676436405711
  0.0307134445756674 0.000267505025998356   0.0214428045575305 0.000688761981540047   0.0221236033571798 0.000835202250794388
  0.0315994471311569 0.000275007507055525   0.0124354095108194 0.000513871288900191   0.0128802493728157 0.000740411210210603
  0.0324766784906387 0.000282880900860815  0.00649018178275457 0.000325691003969469  0.00755140453699533 0.000659554689221728
  0.0333363525569439 0.000290504180191332  0.00516285783669645 0.000287718155655836  0.00527791916436515 0.000590861611937309
  0.0342135690152645 0.000297818032057839  0.00547481016645729 0.000293199497735326  0.00499389533868187 0.000529837218676253
   0.035099558532238 0.000305644918009346  0.00614042989877098 0.000307923166729283  0.00580316659708816 0.000476039049735044
  0.0359592288732529 0.000313069445225609  0.00732290997190757 0.000334223514665322  0.00686261164953193 0.000430267598274746
  0.0368452034890652 0.000320878175550667  0.00812667382937218 0.000348783035923043   0.0076812281770405  0.00038875862016419
  0.0377136319875717 0.000328581073906534  0.00727661329268102 0.000296142901944146  0.00791745063787621 0.000352845892162757
  0.0385908335447311 0.000336002867458696   0.0071188405441661 0.000290757680201921  0.00750967570088666 0.000320717540994741
  0.0394680202007294 0.000343659224074996  0.00626241476318634 0.000269837975553018  0.00654300066771155 0.000292188715383974
  0.0403539836406708 0.000351377470474167  0.00502546715012472 0.000240581377975932  0.00519535181487227 0.000266541423561297
  0.0412311665713787  0.00035901560842928  0.00377533733367094 0.000205620298735488  0.00372834299210359 0.000243875069140303
  0.0420995689928532 0.000366718065595286  0.00257617757178708 0.000167995370999135  0.00236401068683058 0.000223780165544529
   0.042994286864996 0.000374389693328655  0.00166466190162913 0.000133638079914426  0.00122471641115267 0.000205206094653734
  0.0438714548945427 0.000382027628333341 0.000581164528250056 4.25111267092154e-05 0.000471475216664924 0.000188834105490416
  0.0447310693562031 0.000389667865806786 0.000297145172768154 3.72491005697562e-05 0.000110703261190421 0.000174358451295633
   0.045625776052475 0.000397104779459579 0.000174647432787976 2.86810146622228e-05 9.02838701487972e-05 0.000160741279972225
  0.0464853830635548  0.00040474474218034 0.000436095451457751 4.40402651666991e-05 0.000328154697877791 0.000148892118375304
  0.0473625250160694 0.000412508583519507 0.000743457785767278 5.67291496211074e-05 0.000724510437689475 0.000137915849137253
  0.0482572056353092 0.000420053477089002  0.00124970888884837 7.26853369172263e-05  0.00117279558898938 0.000127744707855205
  0.0491343401372433 0.000427925316059346  0.00146871432116925 7.34279705253528e-05  0.00155865785233421 0.000118668937498845
  0.0499939285218716 0.000435565048943473  0.00186512172838329 8.19180721159338e-05  0.00181852275833989 0.000110549895248823
  0.0508885867893696  0.00044310948943249  0.00197151955834013 8.36812310880473e-05  0.00192946116495847 0.000102827396519428
  0.0517657063901424 0.000450872877656152  0.00190135358188772 8.17730586351444e-05  0.00187783949002762 9.59000374354483e-05
  0.0526252686977386 0.000458061258675598  0.00168571183425643 7.65024264474214e-05  0.00169534271892158 8.96723401121443e-05
  0.0535199157893658 0.000465948211174879  0.00149026748277925 7.12017039977657e-05  0.00141066981361171 8.37212626752336e-05
  0.0543970167636871 0.000473693215129278  0.00101919160786714 5.84124692356597e-05  0.00109046493161806 7.83571791754936e-05
  0.0552565567195415  0.00048111574461652 0.000669532787840451 4.45604930252853e-05 0.000787357578123392 7.35161592142678e-05
  0.0561511851847172 0.000489002440075217 0.000444601694381581 3.62046724616003e-05 0.000527160550479593 6.88688053252839e-05
  0.0570282563567162 0.000496530585160385 0.000353024851904974 3.20721683702409e-05 0.000357145308193505  6.4664089784332e-05
  0.0579053275287151 0.000504184919238651 0.000343469059877111 3.14522326212571e-05 0.000285430830856733 6.07769114656131e-05
  0.0587736181914806 0.000511993789741278 0.000355303701808095 3.17547817215904e-05  0.00030884708157374 5.72135040089619e-05
  0.0596506744623184 0.000519413300788296 0.000424256674475737 3.44222164405478e-05 0.000411643423716777 5.38764545788854e-05
  0.0605277232825756 0.000527049257997479 0.000640951908350017 4.19154669703222e-05 0.000567860584136495 5.07800170619127e-05
  0.0614047646522522 0.000534811381577079  0.00074850495641783 4.28807804564134e-05 0.000746519982801108 4.79038581643817e-05
  0.0622905604541302 0.000542184359463316 0.000980203974195854 4.89542480663111e-05 0.000918268199501545 4.52033177415487e-05
  0.0631675869226456 0.000550054340806343  0.00119740556975887 5.37867072483827e-05  0.00105288740958476 4.27150528112994e-05
  0.0640446022152901 0.000557707885089124  0.00124198883452724 5.42611894131576e-05  0.00113320674635882 4.03963212865803e-05
   0.064912848174572 0.000565064872656561  0.00116130115618497 5.22456193196324e-05   0.0011496115193902 3.82543689949438e-05
  0.0657898560166359 0.000573042800853109  0.00122660396862865  5.3173737861606e-05   0.0011021814118956 3.62337000676105e-05
   0.066666841506958 0.000580587599094682 0.000994472864193412 4.52486529047934e-05  0.00099875227824918 3.43452089373881e-05
  0.0675525963306427 0.000588176279001041 0.000816625585864185 4.08600072060814e-05  0.00085231396049446 3.25614740751741e-05
  0.0684295669198036 0.000595937341635409  0.00067121525807405 3.67279599744794e-05 0.000684216850902792 3.09084278335116e-05
  0.0693065375089646 0.000603463781004103 0.000511650212219263 3.19429497641675e-05 0.000512226023184898 2.93593124712842e-05
  0.0701659619808197 0.000610884285370512 0.000360448071712205 1.88789780763805e-05 0.000356600209876799 2.79347493590536e-05
   0.071051687002182 0.000618706867496738 0.000219385727339013 2.07251767255476e-05 0.000222910719478252 2.65563404076449e-05
  0.0719373971223831  0.00062629482149063 0.000117856008093044  1.5209738621799e-05 0.000124471160326993 2.52620699503724e-05
  0.0728143304586411 0.000634055146794078 4.49113054850439e-05 9.17985176380905e-06 6.42876469045057e-05 2.40576555064295e-05
  0.0736824870109558  0.00064151895552176 3.07564404066535e-05 7.75561229305819e-06 3.86135234873604e-05 2.29355196911212e-05
  0.0745594054460526 0.000649170857294431 5.38385989430198e-05 9.96187627144897e-06 4.01874841325983e-05 2.18680305743928e-05
  0.0754363089799881 0.000657039027866953 9.32270350674954e-05 1.28491421567439e-05  6.0102233713903e-05 2.08621975602582e-05
  0.0763132125139236 0.000664456104924097 0.000119982112965491 1.44355546618365e-05 8.82786845184698e-05 1.99137642191086e-05
   0.077190101146698 0.000672215696811266 0.000163327722784256 1.67149968226212e-05 0.000115449875678504 1.90188824290029e-05
  0.0780669748783112  0.00067997516300877  0.00014527695569122  1.4992190515263e-05 0.000134432745813215 1.81739486100442e-05
  0.0789438486099243 0.000687283566219743 0.000169335929526408 1.61216227464558e-05 0.000140947514600814 1.73756179000201e-05
  0.0798207074403763 0.000695042709469325 0.000138663443420514 1.45462131896124e-05  0.00013385479828867 1.66208882261769e-05
  0.0806975588202477 0.000702675487125768 0.000132969960064797 1.41496452801634e-05 0.000114936495071447 1.59068743279264e-05
  0.0815744027495384 0.000710217888155635 0.000109289240616146 1.28058043625206e-05 8.81996305635027e-05 1.52310192604352e-05
  0.0824424624443054 0.000718022859448104 7.29167838547968e-05 1.04800102558354e-05  5.9242389645557e-05 1.45971158888206e-05
  0.0833280608057976 0.000725608756498315  5.8312007514453e-05 9.35476391403681e-06 3.27395386199743e-05 1.39841918101903e-05
  0.0842048674821853 0.000733132690026783 2.18217526345986e-05  5.7497125065106e-06  1.4376709901721e-05 1.34088639413955e-05
   0.085081659257412 0.000740890848541591 2.45200197559309e-05 5.98955582130072e-06 7.21808548613341e-06 1.28630035234191e-05
  0.0859584584832191  0.00074830625275446  2.0693403475739e-05 5.51141492119189e-06 1.26611327269352e-05 1.23447831272213e-05
  0.0868352353572846 0.000756064017056439 3.36201568765498e-05 6.82020029846808e-06 3.00746195935915e-05 1.18525657372201e-05
  0.0877032354474068 0.000763759744406773 5.59028662017444e-05 8.58062637711205e-06 5.66963496908453e-05 1.13893671273122e-05
  0.0885887667536736 0.000771236534022363 9.23531590645298e-05 1.08794277735157e-05 8.96410462385362e-05 1.09400311882118e-05
   0.089465506374836 0.000779101959610352 0.000120440176256703 1.18809604896186e-05 0.000123511171423678 1.05169067535009e-05
  0.0903422459959984  0.00078653452335277 0.000160524430056844 1.36511702569059e-05 0.000154163025387128 1.01141681111147e-05
  0.0912189707159996 0.000794165225219649 0.000184129470119455 1.45641764899068e-05 0.000177813738890768 9.73066596070297e-06
  0.0920956805348396 0.000801921955857266  0.00018965677773621 1.47001145666716e-05  0.00019185408888433 9.36530042800775e-06
  0.0929723829030991 0.000809335964945284 0.000192116972154004 1.47713018357375e-05 0.000195144298476625 9.01703964448741e-06
  0.0938490852713585 0.000817092341801329 0.000180171997533516  1.4247637579424e-05 0.000188047676861422 8.68493875406355e-06
  0.0947169959545135 0.000824894831115157 0.000183021588680311  1.4310055270626e-05 0.000172474839108147 8.37121523638331e-06
  0.0956024304032326  0.00083226196564342  0.00016933801536594  1.3258957386061e-05 0.000150578065399361 8.06572500959706e-06
  0.0964790880680084 0.000840125931447624 0.000114120761497847 1.09190583508269e-05 0.000126196663536363 7.77697600325359e-06
  0.0973557382822037 0.000847538979842817 9.80866743429485e-05 1.00927391580315e-05 0.000102442266379641  7.5011363215835e-06
  0.0982323735952377 0.000855186202777148 7.99311756103345e-05 9.12105865679511e-06  8.2200738681938e-05 7.23753293753104e-06
  0.0991089940071106  0.00086294138416519 5.92693680935958e-05 7.84828988248073e-06 6.75747613665914e-05 6.98551406813664e-06
  0.0999943614006042 0.000870523908020313  5.1990573640712e-05 7.34087270116221e-06 5.96107224104803e-05 6.74211207287426e-06
   0.100870959460735  0.00087827872265049 5.60879991771165e-05  7.3490429125113e-06 5.84984401574369e-05 6.51157059542744e-06
   0.101747542619705 0.000885925126582908 4.37232508765354e-05  6.4924014372383e-06 6.31820233260513e-05 6.29089553476157e-06
   0.102624125778675 0.000893337069650917 6.08220218437046e-05 7.58449646151373e-06 7.19729874461102e-05 6.07958031917447e-06
   0.103500671684742 0.000901091185062511  7.1629087841264e-05 8.15153945359985e-06 8.27451039260816e-05 5.87715890111497e-06
   0.104368470609188 0.000908765396030782 7.40467669361996e-05 8.27000730088405e-06 9.31734512842074e-05 5.68507575811779e-06
   0.105245001614094 0.000916302845745748  9.4703152563796e-05 9.28706575460304e-06 0.000101478018799157  5.4990485762064e-06
   0.106112755835056 0.000923994541355459 8.19531937988715e-05 8.59772463327082e-06 0.000105991876635831 5.32240198801279e-06
   0.106998033821583 0.000931467319686103 9.22598028564594e-05 8.77340288023936e-06 0.000105904552602166 5.14952313136996e-06
   0.107874527573586 0.000939094247716413 8.50499895496292e-05  8.4026448189769e-06  0.00010096505774261 4.98529764562262e-06
   0.108751013875008 0.000946847191948962 9.19354376425556e-05  8.7178986016174e-06  9.1672524796564e-05  4.8276563754133e-06
   0.109627477824688 0.000954257458616313 6.09554089119924e-05 7.12511225233276e-06 7.90547403933991e-05 4.67626665726419e-06
   0.110503941774368 0.000962009909158144 6.58174227430142e-05 7.36346486114459e-06 6.44570058507709e-05 4.53084319744129e-06
   0.111380375921726 0.000969870267870028 5.35579492332509e-05 6.65669164982133e-06 4.93551929638935e-05 4.39110837230202e-06
   0.112256810069084 0.000977171752561482 3.28690729363148e-05 5.28923044088448e-06 3.51289750840346e-05 4.25678834346229e-06
     0.1131332218647 0.000985031633275649 1.87380830357203e-05 4.13129908580459e-06 2.28937780955861e-05 4.12764305810706e-06
   0.114009626209736 0.000992566957355168 1.57250985989185e-05  3.6734132953177e-06 1.33733267392197e-05 4.00342746089277e-06
    0.11488601565361  0.00100008411794604 7.30427982594408e-06  2.7151555353097e-06 6.85785328809056e-06 3.88391972149392e-06
   0.115762390196323  0.00100783523112402 8.02776743157335e-06 2.77349027781904e-06 3.21959755637894e-06 3.76890918114249e-06
   0.116629995405674  0.00101529005770339 3.13658091869862e-06 2.02458325011341e-06 1.98977306041999e-06 3.65927791092461e-06
   0.117515094578266  0.00102299442480081 5.96581174413439e-06 2.43631733561758e-06 2.46694823085034e-06 3.55157986394813e-06
   0.118391431868076  0.00103074481945554 5.96450276637598e-06 2.40731404346335e-06 3.87645791866469e-06 3.44888679957476e-06
   0.119267746806145  0.00103826075563231 1.90786280747528e-06 1.71271626656519e-06 5.48101882591831e-06 3.34994275715323e-06
   0.120144046843052  0.00104601066863268 4.67843742085898e-06 2.17806904325899e-06 6.70266311937665e-06 3.25458652312637e-06
   0.121020339429379  0.00105352610020678 3.37169477605743e-06 1.95019678310511e-06  7.1930087448048e-06 3.16266018031285e-06
   0.121896602213383  0.00106116749245039 4.10426466311231e-06 2.06403008841217e-06 6.86071419901412e-06 3.07401948042461e-06
   0.122772864997387  0.00106902477389488 1.01007127662568e-05 2.86244812821596e-06 5.85606713218007e-06 2.98852262762879e-06
   0.123649097979069  0.00107621527228803 7.21579970157679e-06 2.34183054139767e-06  4.5165518797279e-06 2.90603559976686e-06
   0.124525330960751   0.0010840720213535 4.74361055303844e-06 1.99573761750304e-06 3.28566163970249e-06 2.82643456092077e-06
   0.125401541590691  0.00109171234984514 5.81084431050273e-06 2.13938022288213e-06 2.62246736397434e-06  2.7495976738815e-06
   0.126277759671211  0.00109911839188907 7.49181371518725e-06 2.35804633439767e-06 2.91361978226581e-06 2.67540791185318e-06
   0.127153947949409  0.00110697443075723 6.75272738439492e-06 2.25882811351574e-06  4.4055843818064e-06 2.60376192068705e-06
   0.128030106425285  0.00111472212430907 1.35003931943079e-05 2.99390484980478e-06 7.15825867221234e-06 2.53455373080864e-06
          0.12890625   0.0011220191982954 1.39572933772924e-05 3.03990365068674e-06 1.10370316474656e-05 2.46768214979403e-06
   0.129782378673553  0.00112987441465443 1.99503309389559e-05 3.54794321868724e-06 1.57347170314977e-05 2.40305625644911e-06
   0.130658507347107  0.00113738715889607 2.77030443319839e-05 4.12210091054756e-06 2.08145069883819e-05 2.34058227478075e-06
   0.131534621119499  0.00114502583710643 3.66979148601088e-05 4.70722021587896e-06 2.57779620646061e-05 2.28017713637078e-06
   0.132410690188408  0.00115275413652157 3.19439735162095e-05 4.38526257415631e-06 3.01347746590437e-05 2.22176094401961e-06
   0.133286759257317  0.00116017608763048 3.83156575770588e-05 4.74275084534106e-06 3.34719200750108e-05 2.16525160614171e-06
   0.134162828326225  0.00116779588434973 4.63157468337901e-05  4.9870738721975e-06 3.55040550570902e-05 2.11057556988065e-06
    0.13503885269165  0.00117543342882649 4.75821572630124e-05 5.03051214347487e-06 3.61090376957375e-05 2.05766597472493e-06
