#      z (A) rho (1e-6/A2) irho (1e-6/A2) rhoM (1e-6/A2) theta (degrees)
-92.68571164   2.06964894   0.00000000   0.00000000 270.00000000
-92.58571164   2.06963452   0.00000000   0.00000000 270.00000000
-92.48571164   2.06961995   0.00000000   0.00000000 270.00000000
-92.38571164   2.06960524   0.00000000   0.00000000 270.00000000
-92.28571164   2.06959039   0.00000000   0.00000000 270.00000000
-92.18571164   2.06957539   0.00000000   0.00000000 270.00000000
-92.08571164   2.06956025   0.00000000   0.00000000 270.00000000
-91.98571164   2.06954496   0.00000000   0.00000000 270.00000000
-91.88571164   2.06952952   0.00000000   0.00000000 270.00000000
-91.78571164   2.06951393   0.00000000   0.00000000 270.00000000
-91.68571164   2.06949820   0.00000000   0.00000000 270.00000000
-91.58571164   2.06948231   0.00000000   0.00000000 270.00000000
-91.48571164   2.06946627   0.00000000   0.00000000 270.00000000
-91.38571164   2.06945007   0.00000000   0.00000000 270.00000000
-91.28571164   2.06943372   0.00000000   0.00000000 270.00000000
-91.18571164   2.06941721   0.00000000   0.00000000 270.00000000
-91.08571164   2.06940054   0.00000000   0.00000000 270.00000000
-90.98571164   2.06938371   0.00000000   0.00000000 270.00000000
-90.88571164   2.06936672   0.00000000   0.00000000 270.00000000
-90.78571164   2.06934957   0.00000000   0.00000000 270.00000000
-90.68571164   2.06933225   0.00000000   0.00000000 270.00000000
-90.58571164   2.06931477   0.00000000   0.00000000 270.00000000
-90.48571164   2.06929713   0.00000000   0.00000000 270.00000000
-90.38571164   2.06927931   0.00000000   0.00000000 270.00000000
-90.28571164   2.06926133   0.00000000   0.00000000 270.00000000
-90.18571164   2.06924317   0.00000000   0.00000000 270.00000000
-90.08571164   2.06922484   0.00000000   0.00000000 270.00000000
-89.98571164   2.06920634   0.00000000   0.00000000 270.00000000
-89.88571164   2.06918766   0.00000000   0.00000000 270.00000000
-89.78571164   2.06916881   0.00000000   0.00000000 270.00000000
-89.68571164   2.06914977   0.00000000   0.00000000 270.00000000
-89.58571164   2.06913056   0.00000000   0.00000000 270.00000000
-89.48571164   2.06911117   0.00000000   0.00000000 270.00000000
-89.38571164   2.06909159   0.00000000   0.00000000 270.00000000
-89.28571164   2.06907183   0.00000000   0.00000000 270.00000000
-89.18571164   2.06905189   0.00000000   0.00000000 270.00000000
-89.08571164   2.06903175   0.00000000   0.00000000 270.00000000
-88.98571164   2.06901143   0.00000000   0.00000000 270.00000000
-88.88571164   2.06899092   0.00000000   0.00000000 270.00000000
-88.78571164   2.06897022   0.00000000   0.00000000 270.00000000
-88.68571164   2.06894932   0.00000000   0.00000000 270.00000000
-88.58571164   2.06892823   0.00000000   0.00000000 270.00000000
-88.48571164   2.06890694   0.00000000   0.00000000 270.00000000
-88.38571164   2.06888545   0.00000000   0.00000000 270.00000000
-88.28571164   2.06886376   0.00000000   0.00000000 270.00000000
-88.18571164   2.06884187   0.00000000   0.00000000 270.00000000
-88.08571164   2.06881978   0.00000000   0.00000000 270.00000000
-87.98571164   2.06879749   0.00000000   0.00000000 270.00000000
-87.88571164   2.06877498   0.00000000   0.00000000 270.00000000
-87.78571164   2.06875227   0.00000000   0.00000000 270.00000000
-87.68571164   2.06872935   0.00000000   0.00000000 270.00000000
-87.58571164   2.06870622   0.00000000   0.00000000 270.00000000
-87.48571164   2.06868287   0.00000000   0.00000000 270.00000000
-87.38571164   2.06865931   0.00000000   0.00000000 270.00000000
-87.28571164   2.06863553   0.00000000   0.00000000 270.00000000
-87.18571164   2.06861154   0.00000000   0.00000000 270.00000000
-87.08571164   2.06858732   0.00000000   0.00000000 270.00000000
-86.98571164   2.06856288   0.00000000   0.00000000 270.00000000
-86.88571164   2.06853822   0.00000000   0.00000000 270.00000000
-86.78571164   2.06851333   0.00000000   0.00000000 270.00000000
-86.68571164   2.06848822   0.00000000   0.00000000 270.00000000
-86.58571164   2.06846287   0.00000000   0.00000000 270.00000000
-86.48571164   2.06843730   0.00000000   0.00000000 270.00000000
-86.38571164   2.06841149   0.00000000   0.00000000 270.00000000
-86.28571164   2.06838545   0.00000000   0.00000000 270.00000000
-86.18571164   2.06835917   0.00000000   0.00000000 270.00000000
-86.08571164   2.06833265   0.00000000   0.00000000 270.00000000
-85.98571164   2.06830589   0.00000000   0.00000000 270.00000000
-85.88571164   2.06827889   0.00000000   0.00000000 270.00000000
-85.78571164   2.06825165   0.00000000   0.00000000 270.00000000
-85.68571164   2.06822416   0.00000000   0.00000000 270.00000000
-85.58571164   2.06819642   0.00000000   0.00000000 270.00000000
-85.48571164   2.06816844   0.00000000   0.00000000 270.00000000
-85.38571164   2.06814020   0.00000000   0.00000000 270.00000000
-85.28571164   2.06811170   0.00000000   0.00000000 270.00000000
-85.18571164   2.06808296   0.00000000   0.00000000 270.00000000
-85.08571164   2.06805395   0.00000000   0.00000000 270.00000000
-84.98571164   2.06802468   0.00000000   0.00000000 270.00000000
-84.88571164   2.06799516   0.00000000   0.00000000 270.00000000
-84.78571164   2.06796536   0.00000000   0.00000000 270.00000000
-84.68571164   2.06793531   0.00000000   0.00000000 270.00000000
-84.58571164   2.06790498   0.00000000   0.00000000 270.00000000
-84.48571164   2.06787439   0.00000000   0.00000000 270.00000000
-84.38571164   2.06784352   0.00000000   0.00000000 270.00000000
-84.28571164   2.06781238   0.00000000   0.00000000 270.00000000
-84.18571164   2.06778096   0.00000000   0.00000000 270.00000000
-84.08571164   2.06774927   0.00000000   0.00000000 270.00000000
-83.98571164   2.06771729   0.00000000   0.00000000 270.00000000
-83.88571164   2.06768503   0.00000000   0.00000000 270.00000000
-83.78571164   2.06765249   0.00000000   0.00000000 270.00000000
-83.68571164   2.06761966   0.00000000   0.00000000 270.00000000
-83.58571164   2.06758654   0.00000000   0.00000000 270.00000000
-83.48571164   2.06755313   0.00000000   0.00000000 270.00000000
-83.38571164   2.06751942   0.00000000   0.00000000 270.00000000
-83.28571164   2.06748542   0.00000000   0.00000000 270.00000000
-83.18571164   2.06745113   0.00000000   0.00000000 270.00000000
-83.08571164   2.06741653   0.00000000   0.00000000 270.00000000
-82.98571164   2.06738163   0.00000000   0.00000000 270.00000000
-82.88571164   2.06734642   0.00000000   0.00000000 270.00000000
-82.78571164   2.06731091   0.00000000   0.00000000 270.00000000
-82.68571164   2.06727509   0.00000000   0.00000000 270.00000000
-82.58571164   2.06723895   0.00000000   0.00000000 270.00000000
-82.48571164   2.06720251   0.00000000   0.00000000 270.00000000
-82.38571164   2.06716574   0.00000000   0.00000000 270.00000000
-82.28571164   2.06712866   0.00000000   0.00000000 270.00000000
-82.18571164   2.06709126   0.00000000   0.00000000 270.00000000
-82.08571164   2.06705353   0.00000000   0.00000000 270.00000000
-81.98571164   2.06701548   0.00000000   0.00000000 270.00000000
-81.88571164   2.06697710   0.00000000   0.00000000 270.00000000
-81.78571164   2.06693838   0.00000000   0.00000000 270.00000000
-81.68571164   2.06689934   0.00000000   0.00000000 270.00000000
-81.58571164   2.06685996   0.00000000   0.00000000 270.00000000
-81.48571164   2.06682024   0.00000000   0.00000000 270.00000000
-81.38571164   2.06678018   0.00000000   0.00000000 270.00000000
-81.28571164   2.06673978   0.00000000   0.00000000 270.00000000
-81.18571164   2.06669903   0.00000000   0.00000000 270.00000000
-81.08571164   2.06665794   0.00000000   0.00000000 270.00000000
-80.98571164   2.06661649   0.00000000   0.00000000 270.00000000
-80.88571164   2.06657469   0.00000000   0.00000000 270.00000000
-80.78571164   2.06653254   0.00000000   0.00000000 270.00000000
-80.68571164   2.06649002   0.00000000   0.00000000 270.00000000
-80.58571164   2.06644715   0.00000000   0.00000000 270.00000000
-80.48571164   2.06640391   0.00000000   0.00000000 270.00000000
-80.38571164   2.06636031   0.00000000   0.00000000 270.00000000
-80.28571164   2.06631634   0.00000000   0.00000000 270.00000000
-80.18571164   2.06627199   0.00000000   0.00000000 270.00000000
-80.08571164   2.06622727   0.00000000   0.00000000 270.00000000
-79.98571164   2.06618218   0.00000000   0.00000000 270.00000000
-79.88571164   2.06613670   0.00000000   0.00000000 270.00000000
-79.78571164   2.06609085   0.00000000   0.00000000 270.00000000
-79.68571164   2.06604461   0.00000000   0.00000000 270.00000000
-79.58571164   2.06599798   0.00000000   0.00000000 270.00000000
-79.48571164   2.06595096   0.00000000   0.00000000 270.00000000
-79.38571164   2.06590355   0.00000000   0.00000000 270.00000000
-79.28571164   2.06585574   0.00000000   0.00000000 270.00000000
-79.18571164   2.06580753   0.00000000   0.00000000 270.00000000
-79.08571164   2.06575892   0.00000000   0.00000000 270.00000000
-78.98571164   2.06570991   0.00000000   0.00000000 270.00000000
-78.88571164   2.06566049   0.00000000   0.00000000 270.00000000
-78.78571164   2.06561066   0.00000000   0.00000000 270.00000000
-78.68571164   2.06556041   0.00000000   0.00000000 270.00000000
-78.58571164   2.06550975   0.00000000   0.00000000 270.00000000
-78.48571164   2.06545867   0.00000000   0.00000000 270.00000000
-78.38571164   2.06540717   0.00000000   0.00000000 270.00000000
-78.28571164   2.06535525   0.00000000   0.00000000 270.00000000
-78.18571164   2.06530290   0.00000000   0.00000000 270.00000000
-78.08571164   2.06525011   0.00000000   0.00000000 270.00000000
-77.98571164   2.06519690   0.00000000   0.00000000 270.00000000
-77.88571164   2.06514324   0.00000000   0.00000000 270.00000000
-77.78571164   2.06508915   0.00000000   0.00000000 270.00000000
-77.68571164   2.06503462   0.00000000   0.00000000 270.00000000
-77.58571164   2.06497964   0.00000000   0.00000000 270.00000000
-77.48571164   2.06492421   0.00000000   0.00000000 270.00000000
-77.38571164   2.06486832   0.00000000   0.00000000 270.00000000
-77.28571164   2.06481199   0.00000000   0.00000000 270.00000000
-77.18571164   2.06475519   0.00000000   0.00000000 270.00000000
-77.08571164   2.06469794   0.00000000   0.00000000 270.00000000
-76.98571164   2.06464022   0.00000000   0.00000000 270.00000000
-76.88571164   2.06458203   0.00000000   0.00000000 270.00000000
-76.78571164   2.06452337   0.00000000   0.00000000 270.00000000
-76.68571164   2.06446424   0.00000000   0.00000000 270.00000000
-76.58571164   2.06440463   0.00000000   0.00000000 270.00000000
-76.48571164   2.06434454   0.00000000   0.00000000 270.00000000
-76.38571164   2.06428397   0.00000000   0.00000000 270.00000000
-76.28571164   2.06422291   0.00000000   0.00000000 270.00000000
-76.18571164   2.06416136   0.00000000   0.00000000 270.00000000
-76.08571164   2.06409932   0.00000000   0.00000000 270.00000000
-75.98571164   2.06403678   0.00000000   0.00000000 270.00000000
-75.88571164   2.06397374   0.00000000   0.00000000 270.00000000
-75.78571164   2.06391020   0.00000000   0.00000000 270.00000000
-75.68571164   2.06384615   0.00000000   0.00000000 270.00000000
-75.58571164   2.06378160   0.00000000   0.00000000 270.00000000
-75.48571164   2.06371653   0.00000000   0.00000000 270.00000000
-75.38571164   2.06365094   0.00000000   0.00000000 270.00000000
-75.28571164   2.06358483   0.00000000   0.00000000 270.00000000
-75.18571164   2.06351820   0.00000000   0.00000000 270.00000000
-75.08571164   2.06345104   0.00000000   0.00000000 270.00000000
-74.98571164   2.06338335   0.00000000   0.00000000 270.00000000
-74.88571164   2.06331513   0.00000000   0.00000000 270.00000000
-74.78571164   2.06324637   0.00000000   0.00000000 270.00000000
-74.68571164   2.06317707   0.00000000   0.00000000 270.00000000
-74.58571164   2.06310722   0.00000000   0.00000000 270.00000000
-74.48571164   2.06303683   0.00000000   0.00000000 270.00000000
-74.38571164   2.06296589   0.00000000   0.00000000 270.00000000
-74.28571164   2.06289439   0.00000000   0.00000000 270.00000000
-74.18571164   2.06282233   0.00000000   0.00000000 270.00000000
-74.08571164   2.06274971   0.00000000   0.00000000 270.00000000
-73.98571164   2.06267652   0.00000000   0.00000000 270.00000000
-73.88571164   2.06260277   0.00000000   0.00000000 270.00000000
-73.78571164   2.06252844   0.00000000   0.00000000 270.00000000
-73.68571164   2.06245353   0.00000000   0.00000000 270.00000000
-73.58571164   2.06237805   0.00000000   0.00000000 270.00000000
-73.48571164   2.06230198   0.00000000   0.00000000 270.00000000
-73.38571164   2.06222532   0.00000000   0.00000000 270.00000000
-73.28571164   2.06214807   0.00000000   0.00000000 270.00000000
-73.18571164   2.06207022   0.00000000   0.00000000 270.00000000
-73.08571164   2.06199178   0.00000000   0.00000000 270.00000000
-72.98571164   2.06191273   0.00000000   0.00000000 270.00000000
-72.88571164   2.06183308   0.00000000   0.00000000 270.00000000
-72.78571164   2.06175281   0.00000000   0.00000000 270.00000000
-72.68571164   2.06167193   0.00000000   0.00000000 270.00000000
-72.58571164   2.06159044   0.00000000   0.00000000 270.00000000
-72.48571164   2.06150832   0.00000000   0.00000000 270.00000000
-72.38571164   2.06142557   0.00000000   0.00000000 270.00000000
-72.28571164   2.06134220   0.00000000   0.00000000 270.00000000
-72.18571164   2.06125819   0.00000000   0.00000000 270.00000000
-72.08571164   2.06117354   0.00000000   0.00000000 270.00000000
-71.98571164   2.06108825   0.00000000   0.00000000 270.00000000
-71.88571164   2.06100232   0.00000000   0.00000000 270.00000000
-71.78571164   2.06091574   0.00000000   0.00000000 270.00000000
-71.68571164   2.06082850   0.00000000   0.00000000 270.00000000
-71.58571164   2.06074060   0.00000000   0.00000000 270.00000000
-71.48571164   2.06065205   0.00000000   0.00000000 270.00000000
-71.38571164   2.06056282   0.00000000   0.00000000 270.00000000
-71.28571164   2.06047293   0.00000000   0.00000000 270.00000000
-71.18571164   2.06038237   0.00000000   0.00000000 270.00000000
-71.08571164   2.06029112   0.00000000   0.00000000 270.00000000
-70.98571164   2.06019920   0.00000000   0.00000000 270.00000000
-70.88571164   2.06010659   0.00000000   0.00000000 270.00000000
-70.78571164   2.06001328   0.00000000   0.00000000 270.00000000
-70.68571164   2.05991929   0.00000000   0.00000000 270.00000000
-70.58571164   2.05982459   0.00000000   0.00000000 270.00000000
-70.48571164   2.05972919   0.00000000   0.00000000 270.00000000
-70.38571164   2.05963309   0.00000000   0.00000000 270.00000000
-70.28571164   2.05953627   0.00000000   0.00000000 270.00000000
-70.18571164   2.05943874   0.00000000   0.00000000 270.00000000
-70.08571164   2.05934049   0.00000000   0.00000000 270.00000000
-69.98571164   2.05924151   0.00000000   0.00000000 270.00000000
-69.88571164   2.05914180   0.00000000   0.00000000 270.00000000
-69.78571164   2.05904137   0.00000000   0.00000000 270.00000000
-69.68571164   2.05894019   0.00000000   0.00000000 270.00000000
-69.58571164   2.05883828   0.00000000   0.00000000 270.00000000
-69.48571164   2.05873562   0.00000000   0.00000000 270.00000000
-69.38571164   2.05863221   0.00000000   0.00000000 270.00000000
-69.28571164   2.05852804   0.00000000   0.00000000 270.00000000
-69.18571164   2.05842312   0.00000000   0.00000000 270.00000000
-69.08571164   2.05831743   0.00000000   0.00000000 270.00000000
-68.98571164   2.05821097   0.00000000   0.00000000 270.00000000
-68.88571164   2.05810374   0.00000000   0.00000000 270.00000000
-68.78571164   2.05799574   0.00000000   0.00000000 270.00000000
-68.68571164   2.05788695   0.00000000   0.00000000 270.00000000
-68.58571164   2.05777738   0.00000000   0.00000000 270.00000000
-68.48571164   2.05766702   0.00000000   0.00000000 270.00000000
-68.38571164   2.05755587   0.00000000   0.00000000 270.00000000
-68.28571164   2.05744391   0.00000000   0.00000000 270.00000000
-68.18571164   2.05733115   0.00000000   0.00000000 270.00000000
-68.08571164   2.05721758   0.00000000   0.00000000 270.00000000
-67.98571164   2.05710320   0.00000000   0.00000000 270.00000000
-67.88571164   2.05698801   0.00000000   0.00000000 270.00000000
-67.78571164   2.05687198   0.00000000   0.00000000 270.00000000
-67.68571164   2.05675514   0.00000000   0.00000000 270.00000000
-67.58571164   2.05663746   0.00000000   0.00000000 270.00000000
-67.48571164   2.05651894   0.00000000   0.00000000 270.00000000
-67.38571164   2.05639959   0.00000000   0.00000000 270.00000000
-67.28571164   2.05627939   0.00000000   0.00000000 270.00000000
-67.18571164   2.05615834   0.00000000   0.00000000 270.00000000
-67.08571164   2.05603643   0.00000000   0.00000000 270.00000000
-66.98571164   2.05591366   0.00000000   0.00000000 270.00000000
-66.88571164   2.05579003   0.00000000   0.00000000 270.00000000
-66.78571164   2.05566553   0.00000000   0.00000000 270.00000000
-66.68571164   2.05554016   0.00000000   0.00000000 270.00000000
-66.58571164   2.05541390   0.00000000   0.00000000 270.00000000
-66.48571164   2.05528677   0.00000000   0.00000000 270.00000000
-66.38571164   2.05515874   0.00000000   0.00000000 270.00000000
-66.28571164   2.05502982   0.00000000   0.00000000 270.00000000
-66.18571164   2.05490000   0.00000000   0.00000000 270.00000000
-66.08571164   2.05476928   0.00000000   0.00000000 270.00000000
-65.98571164   2.05463765   0.00000000   0.00000000 270.00000000
-65.88571164   2.05450511   0.00000000   0.00000000 270.00000000
-65.78571164   2.05437165   0.00000000   0.00000000 270.00000000
-65.68571164   2.05423727   0.00000000   0.00000000 270.00000000
-65.58571164   2.05410195   0.00000000   0.00000000 270.00000000
-65.48571164   2.05396571   0.00000000   0.00000000 270.00000000
-65.38571164   2.05382853   0.00000000   0.00000000 270.00000000
-65.28571164   2.05369040   0.00000000   0.00000000 270.00000000
-65.18571164   2.05355133   0.00000000   0.00000000 270.00000000
-65.08571164   2.05341130   0.00000000   0.00000000 270.00000000
-64.98571164   2.05327032   0.00000000   0.00000000 270.00000000
-64.88571164   2.05312837   0.00000000   0.00000000 270.00000000
-64.78571164   2.05298546   0.00000000   0.00000000 270.00000000
-64.68571164   2.05284157   0.00000000   0.00000000 270.00000000
-64.58571164   2.05269670   0.00000000   0.00000000 270.00000000
-64.48571164   2.05255085   0.00000000   0.00000000 270.00000000
-64.38571164   2.05240401   0.00000000   0.00000000 270.00000000
-64.28571164   2.05225618   0.00000000   0.00000000 270.00000000
-64.18571164   2.05210734   0.00000000   0.00000000 270.00000000
-64.08571164   2.05195751   0.00000000   0.00000000 270.00000000
-63.98571164   2.05180666   0.00000000   0.00000000 270.00000000
-63.88571164   2.05165480   0.00000000   0.00000000 270.00000000
-63.78571164   2.05150192   0.00000000   0.00000000 270.00000000
-63.68571164   2.05134801   0.00000000   0.00000000 270.00000000
-63.58571164   2.05119308   0.00000000   0.00000000 270.00000000
-63.48571164   2.05103711   0.00000000   0.00000000 270.00000000
-63.38571164   2.05088010   0.00000000   0.00000000 270.00000000
-63.28571164   2.05072204   0.00000000   0.00000000 270.00000000
-63.18571164   2.05056293   0.00000000   0.00000000 270.00000000
-63.08571164   2.05040276   0.00000000   0.00000000 270.00000000
-62.98571164   2.05024153   0.00000000   0.00000000 270.00000000
-62.88571164   2.05007924   0.00000000   0.00000000 270.00000000
-62.78571164   2.04991587   0.00000000   0.00000000 270.00000000
-62.68571164   2.04975142   0.00000000   0.00000000 270.00000000
-62.58571164   2.04958589   0.00000000   0.00000000 270.00000000
-62.48571164   2.04941927   0.00000000   0.00000000 270.00000000
-62.38571164   2.04925156   0.00000000   0.00000000 270.00000000
-62.28571164   2.04908275   0.00000000   0.00000000 270.00000000
-62.18571164   2.04891283   0.00000000   0.00000000 270.00000000
