#      z (A) rho (1e-6/A2) irho (1e-6/A2) rhoM (1e-6/A2) theta (degrees)
-93.99523063   2.06958024   0.00000000   0.00000000 270.00000000
-93.89523063   2.06956529   0.00000000   0.00000000 270.00000000
-93.79523063   2.06955020   0.00000000   0.00000000 270.00000000
-93.69523063   2.06953496   0.00000000   0.00000000 270.00000000
-93.59523063   2.06951958   0.00000000   0.00000000 270.00000000
-93.49523063   2.06950405   0.00000000   0.00000000 270.00000000
-93.39523063   2.06948837   0.00000000   0.00000000 270.00000000
-93.29523063   2.06947254   0.00000000   0.00000000 270.00000000
-93.19523063   2.06945656   0.00000000   0.00000000 270.00000000
-93.09523063   2.06944043   0.00000000   0.00000000 270.00000000
-92.99523063   2.06942414   0.00000000   0.00000000 270.00000000
-92.89523063   2.06940770   0.00000000   0.00000000 270.00000000
-92.79523063   2.06939110   0.00000000   0.00000000 270.00000000
-92.69523063   2.06937435   0.00000000   0.00000000 270.00000000
-92.59523063   2.06935744   0.00000000   0.00000000 270.00000000
-92.49523063   2.06934036   0.00000000   0.00000000 270.00000000
-92.39523063   2.06932312   0.00000000   0.00000000 270.00000000
-92.29523063   2.06930573   0.00000000   0.00000000 270.00000000
-92.19523063   2.06928816   0.00000000   0.00000000 270.00000000
-92.09523063   2.06927043   0.00000000   0.00000000 270.00000000
-91.99523063   2.06925254   0.00000000   0.00000000 270.00000000
-91.89523063   2.06923447   0.00000000   0.00000000 270.00000000
-91.79523063   2.06921624   0.00000000   0.00000000 270.00000000
-91.69523063   2.06919783   0.00000000   0.00000000 270.00000000
-91.59523063   2.06917925   0.00000000   0.00000000 270.00000000
-91.49523063   2.06916050   0.00000000   0.00000000 270.00000000
-91.39523063   2.06914157   0.00000000   0.00000000 270.00000000
-91.29523063   2.06912247   0.00000000   0.00000000 270.00000000
-91.19523063   2.06910318   0.00000000   0.00000000 270.00000000
-91.09523063   2.06908372   0.00000000   0.00000000 270.00000000
-90.99523063   2.06906407   0.00000000   0.00000000 270.00000000
-90.89523063   2.06904424   0.00000000   0.00000000 270.00000000
-90.79523063   2.06902423   0.00000000   0.00000000 270.00000000
-90.69523063   2.06900403   0.00000000   0.00000000 270.00000000
-90.59523063   2.06898365   0.00000000   0.00000000 270.00000000
-90.49523063   2.06896307   0.00000000   0.00000000 270.00000000
-90.39523063   2.06894231   0.00000000   0.00000000 270.00000000
-90.29523063   2.06892135   0.00000000   0.00000000 270.00000000
-90.19523063   2.06890020   0.00000000   0.00000000 270.00000000
-90.09523063   2.06887885   0.00000000   0.00000000 270.00000000
-89.99523063   2.06885731   0.00000000   0.00000000 270.00000000
-89.89523063   2.06883556   0.00000000   0.00000000 270.00000000
-89.79523063   2.06881362   0.00000000   0.00000000 270.00000000
-89.69523063   2.06879148   0.00000000   0.00000000 270.00000000
-89.59523063   2.06876913   0.00000000   0.00000000 270.00000000
-89.49523063   2.06874658   0.00000000   0.00000000 270.00000000
-89.39523063   2.06872382   0.00000000   0.00000000 270.00000000
-89.29523063   2.06870085   0.00000000   0.00000000 270.00000000
-89.19523063   2.06867768   0.00000000   0.00000000 270.00000000
-89.09523063   2.06865429   0.00000000   0.00000000 270.00000000
-88.99523063   2.06863069   0.00000000   0.00000000 270.00000000
-88.89523063   2.06860687   0.00000000   0.00000000 270.00000000
-88.79523063   2.06858284   0.00000000   0.00000000 270.00000000
-88.69523063   2.06855859   0.00000000   0.00000000 270.00000000
-88.59523063   2.06853412   0.00000000   0.00000000 270.00000000
-88.49523063   2.06850942   0.00000000   0.00000000 270.00000000
-88.39523063   2.06848451   0.00000000   0.00000000 270.00000000
-88.29523063   2.06845937   0.00000000   0.00000000 270.00000000
-88.19523063   2.06843400   0.00000000   0.00000000 270.00000000
-88.09523063   2.06840840   0.00000000   0.00000000 270.00000000
-87.99523063   2.06838257   0.00000000   0.00000000 270.00000000
-87.89523063   2.06835651   0.00000000   0.00000000 270.00000000
-87.79523063   2.06833021   0.00000000   0.00000000 270.00000000
-87.69523063   2.06830368   0.00000000   0.00000000 270.00000000
-87.59523063   2.06827691   0.00000000   0.00000000 270.00000000
-87.49523063   2.06824990   0.00000000   0.00000000 270.00000000
-87.39523063   2.06822265   0.00000000   0.00000000 270.00000000
-87.29523063   2.06819515   0.00000000   0.00000000 270.00000000
-87.19523063   2.06816741   0.00000000   0.00000000 270.00000000
-87.09523063   2.06813942   0.00000000   0.00000000 270.00000000
-86.99523063   2.06811118   0.00000000   0.00000000 270.00000000
-86.89523063   2.06808269   0.00000000   0.00000000 270.00000000
-86.79523063   2.06805395   0.00000000   0.00000000 270.00000000
-86.69523063   2.06802495   0.00000000   0.00000000 270.00000000
-86.59523063   2.06799570   0.00000000   0.00000000 270.00000000
-86.49523063   2.06796618   0.00000000   0.00000000 270.00000000
-86.39523063   2.06793641   0.00000000   0.00000000 270.00000000
-86.29523063   2.06790637   0.00000000   0.00000000 270.00000000
-86.19523063   2.06787606   0.00000000   0.00000000 270.00000000
-86.09523063   2.06784549   0.00000000   0.00000000 270.00000000
-85.99523063   2.06781465   0.00000000   0.00000000 270.00000000
-85.89523063   2.06778354   0.00000000   0.00000000 270.00000000
-85.79523063   2.06775216   0.00000000   0.00000000 270.00000000
-85.69523063   2.06772049   0.00000000   0.00000000 270.00000000
-85.59523063   2.06768856   0.00000000   0.00000000 270.00000000
-85.49523063   2.06765634   0.00000000   0.00000000 270.00000000
-85.39523063   2.06762384   0.00000000   0.00000000 270.00000000
-85.29523063   2.06759105   0.00000000   0.00000000 270.00000000
-85.19523063   2.06755798   0.00000000   0.00000000 270.00000000
-85.09523063   2.06752463   0.00000000   0.00000000 270.00000000
-84.99523063   2.06749098   0.00000000   0.00000000 270.00000000
-84.89523063   2.06745704   0.00000000   0.00000000 270.00000000
-84.79523063   2.06742280   0.00000000   0.00000000 270.00000000
-84.69523063   2.06738827   0.00000000   0.00000000 270.00000000
-84.59523063   2.06735343   0.00000000   0.00000000 270.00000000
-84.49523063   2.06731830   0.00000000   0.00000000 270.00000000
-84.39523063   2.06728286   0.00000000   0.00000000 270.00000000
-84.29523063   2.06724712   0.00000000   0.00000000 270.00000000
-84.19523063   2.06721107   0.00000000   0.00000000 270.00000000
-84.09523063   2.06717470   0.00000000   0.00000000 270.00000000
-83.99523063   2.06713803   0.00000000   0.00000000 270.00000000
-83.89523063   2.06710104   0.00000000   0.00000000 270.00000000
-83.79523063   2.06706373   0.00000000   0.00000000 270.00000000
-83.69523063   2.06702610   0.00000000   0.00000000 270.00000000
-83.59523063   2.06698815   0.00000000   0.00000000 270.00000000
-83.49523063   2.06694988   0.00000000   0.00000000 270.00000000
-83.39523063   2.06691128   0.00000000   0.00000000 270.00000000
-83.29523063   2.06687235   0.00000000   0.00000000 270.00000000
-83.19523063   2.06683309   0.00000000   0.00000000 270.00000000
-83.09523063   2.06679349   0.00000000   0.00000000 270.00000000
-82.99523063   2.06675356   0.00000000   0.00000000 270.00000000
-82.89523063   2.06671328   0.00000000   0.00000000 270.00000000
-82.79523063   2.06667267   0.00000000   0.00000000 270.00000000
-82.69523063   2.06663171   0.00000000   0.00000000 270.00000000
-82.59523063   2.06659041   0.00000000   0.00000000 270.00000000
-82.49523063   2.06654876   0.00000000   0.00000000 270.00000000
-82.39523063   2.06650675   0.00000000   0.00000000 270.00000000
-82.29523063   2.06646439   0.00000000   0.00000000 270.00000000
-82.19523063   2.06642168   0.00000000   0.00000000 270.00000000
-82.09523063   2.06637860   0.00000000   0.00000000 270.00000000
-81.99523063   2.06633517   0.00000000   0.00000000 270.00000000
-81.89523063   2.06629137   0.00000000   0.00000000 270.00000000
-81.79523063   2.06624720   0.00000000   0.00000000 270.00000000
-81.69523063   2.06620266   0.00000000   0.00000000 270.00000000
-81.59523063   2.06615775   0.00000000   0.00000000 270.00000000
-81.49523063   2.06611247   0.00000000   0.00000000 270.00000000
-81.39523063   2.06606681   0.00000000   0.00000000 270.00000000
-81.29523063   2.06602077   0.00000000   0.00000000 270.00000000
-81.19523063   2.06597434   0.00000000   0.00000000 270.00000000
-81.09523063   2.06592753   0.00000000   0.00000000 270.00000000
-80.99523063   2.06588034   0.00000000   0.00000000 270.00000000
-80.89523063   2.06583275   0.00000000   0.00000000 270.00000000
-80.79523063   2.06578476   0.00000000   0.00000000 270.00000000
-80.69523063   2.06573638   0.00000000   0.00000000 270.00000000
-80.59523063   2.06568760   0.00000000   0.00000000 270.00000000
-80.49523063   2.06563842   0.00000000   0.00000000 270.00000000
-80.39523063   2.06558884   0.00000000   0.00000000 270.00000000
-80.29523063   2.06553884   0.00000000   0.00000000 270.00000000
-80.19523063   2.06548844   0.00000000   0.00000000 270.00000000
-80.09523063   2.06543762   0.00000000   0.00000000 270.00000000
-79.99523063   2.06538639   0.00000000   0.00000000 270.00000000
-79.89523063   2.06533473   0.00000000   0.00000000 270.00000000
-79.79523063   2.06528266   0.00000000   0.00000000 270.00000000
-79.69523063   2.06523016   0.00000000   0.00000000 270.00000000
-79.59523063   2.06517723   0.00000000   0.00000000 270.00000000
-79.49523063   2.06512387   0.00000000   0.00000000 270.00000000
-79.39523063   2.06507008   0.00000000   0.00000000 270.00000000
-79.29523063   2.06501585   0.00000000   0.00000000 270.00000000
-79.19523063   2.06496118   0.00000000   0.00000000 270.00000000
-79.09523063   2.06490607   0.00000000   0.00000000 270.00000000
-78.99523063   2.06485051   0.00000000   0.00000000 270.00000000
-78.89523063   2.06479450   0.00000000   0.00000000 270.00000000
-78.79523063   2.06473804   0.00000000   0.00000000 270.00000000
-78.69523063   2.06468113   0.00000000   0.00000000 270.00000000
-78.59523063   2.06462375   0.00000000   0.00000000 270.00000000
-78.49523063   2.06456592   0.00000000   0.00000000 270.00000000
-78.39523063   2.06450762   0.00000000   0.00000000 270.00000000
-78.29523063   2.06444886   0.00000000   0.00000000 270.00000000
-78.19523063   2.06438962   0.00000000   0.00000000 270.00000000
-78.09523063   2.06432991   0.00000000   0.00000000 270.00000000
-77.99523063   2.06426973   0.00000000   0.00000000 270.00000000
-77.89523063   2.06420906   0.00000000   0.00000000 270.00000000
-77.79523063   2.06414791   0.00000000   0.00000000 270.00000000
-77.69523063   2.06408627   0.00000000   0.00000000 270.00000000
-77.59523063   2.06402415   0.00000000   0.00000000 270.00000000
-77.49523063   2.06396153   0.00000000   0.00000000 270.00000000
-77.39523063   2.06389841   0.00000000   0.00000000 270.00000000
-77.29523063   2.06383480   0.00000000   0.00000000 270.00000000
-77.19523063   2.06377068   0.00000000   0.00000000 270.00000000
-77.09523063   2.06370606   0.00000000   0.00000000 270.00000000
-76.99523063   2.06364092   0.00000000   0.00000000 270.00000000
-76.89523063   2.06357528   0.00000000   0.00000000 270.00000000
-76.79523063   2.06350912   0.00000000   0.00000000 270.00000000
-76.69523063   2.06344243   0.00000000   0.00000000 270.00000000
-76.59523063   2.06337523   0.00000000   0.00000000 270.00000000
-76.49523063   2.06330750   0.00000000   0.00000000 270.00000000
-76.39523063   2.06323923   0.00000000   0.00000000 270.00000000
-76.29523063   2.06317044   0.00000000   0.00000000 270.00000000
-76.19523063   2.06310111   0.00000000   0.00000000 270.00000000
-76.09523063   2.06303124   0.00000000   0.00000000 270.00000000
-75.99523063   2.06296082   0.00000000   0.00000000 270.00000000
-75.89523063   2.06288986   0.00000000   0.00000000 270.00000000
-75.79523063   2.06281835   0.00000000   0.00000000 270.00000000
-75.69523063   2.06274628   0.00000000   0.00000000 270.00000000
-75.59523063   2.06267365   0.00000000   0.00000000 270.00000000
-75.49523063   2.06260047   0.00000000   0.00000000 270.00000000
-75.39523063   2.06252671   0.00000000   0.00000000 270.00000000
-75.29523063   2.06245239   0.00000000   0.00000000 270.00000000
-75.19523063   2.06237750   0.00000000   0.00000000 270.00000000
-75.09523063   2.06230203   0.00000000   0.00000000 270.00000000
-74.99523063   2.06222598   0.00000000   0.00000000 270.00000000
-74.89523063   2.06214935   0.00000000   0.00000000 270.00000000
-74.79523063   2.06207213   0.00000000   0.00000000 270.00000000
-74.69523063   2.06199433   0.00000000   0.00000000 270.00000000
-74.59523063   2.06191592   0.00000000   0.00000000 270.00000000
-74.49523063   2.06183692   0.00000000   0.00000000 270.00000000
-74.39523063   2.06175732   0.00000000   0.00000000 270.00000000
-74.29523063   2.06167711   0.00000000   0.00000000 270.00000000
-74.19523063   2.06159629   0.00000000   0.00000000 270.00000000
-74.09523063   2.06151486   0.00000000   0.00000000 270.00000000
-73.99523063   2.06143281   0.00000000   0.00000000 270.00000000
-73.89523063   2.06135014   0.00000000   0.00000000 270.00000000
-73.79523063   2.06126685   0.00000000   0.00000000 270.00000000
-73.69523063   2.06118293   0.00000000   0.00000000 270.00000000
-73.59523063   2.06109838   0.00000000   0.00000000 270.00000000
-73.49523063   2.06101318   0.00000000   0.00000000 270.00000000
-73.39523063   2.06092735   0.00000000   0.00000000 270.00000000
-73.29523063   2.06084088   0.00000000   0.00000000 270.00000000
-73.19523063   2.06075376   0.00000000   0.00000000 270.00000000
-73.09523063   2.06066598   0.00000000   0.00000000 270.00000000
-72.99523063   2.06057755   0.00000000   0.00000000 270.00000000
-72.89523063   2.06048846   0.00000000   0.00000000 270.00000000
-72.79523063   2.06039870   0.00000000   0.00000000 270.00000000
-72.69523063   2.06030828   0.00000000   0.00000000 270.00000000
-72.59523063   2.06021719   0.00000000   0.00000000 270.00000000
-72.49523063   2.06012542   0.00000000   0.00000000 270.00000000
-72.39523063   2.06003296   0.00000000   0.00000000 270.00000000
-72.29523063   2.05993983   0.00000000   0.00000000 270.00000000
-72.19523063   2.05984600   0.00000000   0.00000000 270.00000000
-72.09523063   2.05975149   0.00000000   0.00000000 270.00000000
-71.99523063   2.05965627   0.00000000   0.00000000 270.00000000
-71.89523063   2.05956036   0.00000000   0.00000000 270.00000000
-71.79523063   2.05946374   0.00000000   0.00000000 270.00000000
-71.69523063   2.05936641   0.00000000   0.00000000 270.00000000
-71.59523063   2.05926837   0.00000000   0.00000000 270.00000000
-71.49523063   2.05916961   0.00000000   0.00000000 270.00000000
-71.39523063   2.05907013   0.00000000   0.00000000 270.00000000
-71.29523063   2.05896992   0.00000000   0.00000000 270.00000000
-71.19523063   2.05886898   0.00000000   0.00000000 270.00000000
-71.09523063   2.05876731   0.00000000   0.00000000 270.00000000
-70.99523063   2.05866490   0.00000000   0.00000000 270.00000000
-70.89523063   2.05856175   0.00000000   0.00000000 270.00000000
-70.79523063   2.05845784   0.00000000   0.00000000 270.00000000
-70.69523063   2.05835319   0.00000000   0.00000000 270.00000000
-70.59523063   2.05824778   0.00000000   0.00000000 270.00000000
-70.49523063   2.05814160   0.00000000   0.00000000 270.00000000
-70.39523063   2.05803467   0.00000000   0.00000000 270.00000000
-70.29523063   2.05792696   0.00000000   0.00000000 270.00000000
-70.19523063   2.05781848   0.00000000   0.00000000 270.00000000
-70.09523063   2.05770922   0.00000000   0.00000000 270.00000000
-69.99523063   2.05759918   0.00000000   0.00000000 270.00000000
-69.89523063   2.05748835   0.00000000   0.00000000 270.00000000
-69.79523063   2.05737673   0.00000000   0.00000000 270.00000000
-69.69523063   2.05726431   0.00000000   0.00000000 270.00000000
-69.59523063   2.05715109   0.00000000   0.00000000 270.00000000
-69.49523063   2.05703707   0.00000000   0.00000000 270.00000000
-69.39523063   2.05692223   0.00000000   0.00000000 270.00000000
-69.29523063   2.05680658   0.00000000   0.00000000 270.00000000
-69.19523063   2.05669012   0.00000000   0.00000000 270.00000000
-69.09523063   2.05657282   0.00000000   0.00000000 270.00000000
-68.99523063   2.05645470   0.00000000   0.00000000 270.00000000
-68.89523063   2.05633575   0.00000000   0.00000000 270.00000000
-68.79523063   2.05621596   0.00000000   0.00000000 270.00000000
-68.69523063   2.05609532   0.00000000   0.00000000 270.00000000
-68.59523063   2.05597384   0.00000000   0.00000000 270.00000000
-68.49523063   2.05585151   0.00000000   0.00000000 270.00000000
-68.39523063   2.05572832   0.00000000   0.00000000 270.00000000
-68.29523063   2.05560427   0.00000000   0.00000000 270.00000000
-68.19523063   2.05547935   0.00000000   0.00000000 270.00000000
-68.09523063   2.05535357   0.00000000   0.00000000 270.00000000
-67.99523063   2.05522690   0.00000000   0.00000000 270.00000000
-67.89523063   2.05509936   0.00000000   0.00000000 270.00000000
-67.79523063   2.05497093   0.00000000   0.00000000 270.00000000
-67.69523063   2.05484161   0.00000000   0.00000000 270.00000000
-67.59523063   2.05471140   0.00000000   0.00000000 270.00000000
-67.49523063   2.05458029   0.00000000   0.00000000 270.00000000
-67.39523063   2.05444827   0.00000000   0.00000000 270.00000000
-67.29523063   2.05431534   0.00000000   0.00000000 270.00000000
-67.19523063   2.05418150   0.00000000   0.00000000 270.00000000
-67.09523063   2.05404674   0.00000000   0.00000000 270.00000000
-66.99523063   2.05391105   0.00000000   0.00000000 270.00000000
-66.89523063   2.05377444   0.00000000   0.00000000 270.00000000
-66.79523063   2.05363689   0.00000000   0.00000000 270.00000000
-66.69523063   2.05349840   0.00000000   0.00000000 270.00000000
-66.59523063   2.05335897   0.00000000   0.00000000 270.00000000
-66.49523063   2.05321859   0.00000000   0.00000000 270.00000000
-66.39523063   2.05307726   0.00000000   0.00000000 270.00000000
-66.29523063   2.05293496   0.00000000   0.00000000 270.00000000
-66.19523063   2.05279171   0.00000000   0.00000000 270.00000000
-66.09523063   2.05264748   0.00000000   0.00000000 270.00000000
-65.99523063   2.05250228   0.00000000   0.00000000 270.00000000
-65.89523063   2.05235610   0.00000000   0.00000000 270.00000000
-65.79523063   2.05220893   0.00000000   0.00000000 270.00000000
-65.69523063   2.05206078   0.00000000   0.00000000 270.00000000
-65.59523063   2.05191163   0.00000000   0.00000000 270.00000000
-65.49523063   2.05176148   0.00000000   0.00000000 270.00000000
-65.39523063   2.05161032   0.00000000   0.00000000 270.00000000
-65.29523063   2.05145816   0.00000000   0.00000000 270.00000000
-65.19523063   2.05130497   0.00000000   0.00000000 270.00000000
-65.09523063   2.05115077   0.00000000   0.00000000 270.00000000
-64.99523063   2.05099555   0.00000000   0.00000000 270.00000000
-64.89523063   2.05083929   0.00000000   0.00000000 270.00000000
-64.79523063   2.05068199   0.00000000   0.00000000 270.00000000
-64.69523063   2.05052366   0.00000000   0.00000000 270.00000000
-64.59523063   2.05036427   0.00000000   0.00000000 270.00000000
-64.49523063   2.05020384   0.00000000   0.00000000 270.00000000
-64.39523063   2.05004234   0.00000000   0.00000000 270.00000000
-64.29523063   2.04987979   0.00000000   0.00000000 270.00000000
-64.19523063   2.04971616   0.00000000   0.00000000 270.00000000
-64.09523063   2.04955146   0.00000000   0.00000000 270.00000000
-63.99523063   2.04938569   0.00000000   0.00000000 270.00000000
-63.89523063   2.04921883   0.00000000   0.00000000 270.00000000
-63.79523063   2.04905088   0.00000000   0.00000000 270.00000000
-63.69523063   2.04888183   0.00000000   0.00000000 270.00000000
-63.59523063   2.04871168   0.00000000   0.00000000 270.00000000
-63.49523063   2.04854043   0.00000000   0.00000000 270.00000000
