# intensity: 0.974487185793136
# background: 8.3654771094357e-08
#           Q (1/A)             dQ (1/A)                    R                   dR               theory              fresnel
  0.0100976740941405  8.9479581888303e-05    0.965405862123547   0.0102637374386372     0.97354760199597    0.873717930843083
  0.0105407405644655 9.25914509055987e-05    0.947539303417396   0.0100907559016562     0.96306375636104    0.389215931148388
  0.0109749650582671 9.56521780732915e-05    0.940726447667846   0.0100311390863223    0.954173426314736     0.21426146519845
  0.0114136096090078 9.87540274335797e-05    0.943196880160382   0.0100146439767608    0.944979015247001    0.143971101386171
  0.0118522550910711 0.000101864976747688    0.927143922545752   0.0099112817796712    0.934432336723302    0.104503755768293
  0.0122908987104893 0.000104984231814592    0.929971594893802  0.00994397220310285    0.921850299296907    0.079354146558325
  0.0127295413985848 0.000108111056955349    0.911481053038853  0.00975472636838775    0.906556143634781   0.0621471236432197
  0.0131681831553578 0.000111244801404555    0.903875419142294  0.00974313481596232    0.887772716462417   0.0498028902447821
  0.0136068286374211 0.000114384946506908    0.881864959606714  0.00952619266550613     0.86457730442649   0.0406359721670496
  0.0140454713255167 0.000117530930487587    0.860106135399623   0.0093703250032958    0.835885318293287   0.0336451799312107
  0.0144841112196445  0.00012068229785851    0.818651658181809  0.00904447099688934    0.800461944811891   0.0281998607750766
  0.0149271506816149 0.000123870345119265    0.773732069419352  0.00867651929476005    0.756550478651002   0.0238433098169535
  0.0153613947331905 0.000126999660171898    0.706975474841862   0.0081041338650115    0.704402886628983   0.0204074094499311
  0.0158000346273184 0.000130164917685057    0.647539433033302  0.00761512167973735    0.641835301201398    0.017577208926235
  0.0162386763840914 0.000133334152008395    0.566279842779695  0.00689128770447634    0.569514091114207   0.0152452317861585
  0.0166773162782192 0.000136507065251747    0.484236335710795  0.00624118243672319    0.489024057764267   0.0133054382484407
  0.0171159543097019  0.00013968342890202    0.396957214183256   0.0054860434201914     0.40389071939461   0.0116781106493766
  0.0175590254366398 0.000142895146134346    0.309695783755403  0.00466202570344617    0.318487469765923   0.0102892568330729
  0.0179932322353125 0.000146045583051335    0.239471483217171  0.00400809339223876    0.241492853922597  0.00913057181942654
  0.0184362512081861 0.000149200441998054    0.178618276022526  0.00334804371322293    0.175428535507507  0.00811777538628146
  0.0188705064356327 0.000151837383546581    0.124307715934363  0.00271923713701844    0.126498599160894  0.00726218004834131
  0.0193091444671154 0.000154515954356656    0.099045092890099  0.00241466270254372   0.0938934258563743  0.00651315374536762
  0.0197433866560459 0.000157181810171239   0.0857805403277229  0.00222146639418726   0.0767080970011574  0.00586737248988524
  0.0201908145099878 0.000159942535726632   0.0783219314864082  0.00212390079744471   0.0714560714939735  0.00528590383268096
  0.0206250473856926 0.000162634743027303   0.0808119943773635  0.00216736031217497   0.0747959157893474  0.00479068348238162
   0.021068112924695  0.00016539407954436   0.0894066425074025  0.00227521960728526    0.083367992228373   0.0043453353894941
  0.0214979443699121 0.000168082453670241    0.097453082634656  0.00239121167788489   0.0939951721280468  0.00396292254699764
  0.0219409484416246 0.000191004284355359    0.104520295990221  0.00184987949665795    0.105159925851954  0.00361648452268663
  0.0228182133287191 0.000198661799083419    0.120914187940497   0.0020000825917118    0.123638165398801  0.00303468914523798
  0.0237042475491762 0.000206363204335391    0.125107770984666  0.00200515516963903    0.133634998521992  0.00256086803295204
  0.0245815049856901 0.000214020614834925    0.127937447833639  0.00201111492601274     0.13392393394055  0.00218090307329362
  0.0254412107169628 0.000221662378611353    0.125372898333125  0.00196419145979181    0.125917702805588  0.00187572639262239
   0.026336008682847 0.000229209050082477    0.109628801870852  0.00178376191777833    0.110934486852788  0.00161356513206257
  0.0272044837474823 0.000236804336344619   0.0908306266404736  0.00157867158254206   0.0923264676527072  0.00140200483828346
  0.0280729588121176 0.000244616190674345   0.0688879412061204  0.00133144198619139   0.0721694885357158  0.00122455807176146
  0.0289677418768406 0.000252054462647654   0.0513862351439608  0.00112015803421801   0.0521639920811717  0.00107046030360695
  0.0298362094908953 0.000259631544039002   0.0347661635872564 0.000900143373202342   0.0353269349728338 0.000943635722582913
  0.0307134445756674 0.000267505025998356   0.0214428045575305 0.000688761981540047   0.0220523351401805 0.000834285174375216
  0.0315994471311569 0.000275007507055525   0.0124354095108194 0.000513871288900191    0.012822729424678 0.000739601188418777
  0.0324766784906387 0.000282880900860815  0.00649018178275457 0.000325691003969469  0.00751307874120855 0.000658835984759786
  0.0333363525569439 0.000290504180191332  0.00516285783669645 0.000287718155655836  0.00526620583149523 0.000590220487716545
  0.0342135690152645 0.000297818032057839  0.00547481016645729 0.000293199497735326  0.00501740526063487 0.000529265013876982
   0.035099558532238 0.000305644918009346  0.00614042989877098 0.000307923166729283  0.00586775125508455 0.000475527603240486
  0.0359592288732529 0.000313069445225609  0.00732290997190757 0.000334223514665322  0.00696760410234456 0.000429807844911196
  0.0368452034890652 0.000320878175550667  0.00812667382937218 0.000348783035923043  0.00782274036526376 0.000388345746000993
  0.0377136319875717 0.000328581073906534  0.00727661329268102 0.000296142901944146  0.00808460486935477 0.000352473576935188
  0.0385908335447311 0.000336002867458696   0.0071188405441661 0.000290757680201921  0.00768901562785594 0.000320381510722378
  0.0394680202007294 0.000343659224074996  0.00626241476318634 0.000269837975553018  0.00671954473578313 0.000291884904852798
  0.0403539836406708 0.000351377470474167  0.00502546715012472 0.000240581377975932  0.00535513690409959 0.000266266578439211
  0.0412311665713787  0.00035901560842928  0.00377533733367094 0.000205620298735488  0.00386109645537921 0.000243625822831257
  0.0420995689928532 0.000366718065595286  0.00257617757178708 0.000167995370999135  0.00246433291365283  0.00022355361391636
   0.042994286864996 0.000374389693328655  0.00166466190162913 0.000133638079914426  0.00129086668592188 0.000205000520116072
  0.0438714548945427 0.000382027628333341 0.000581164528250056 4.25111267092154e-05 0.000507838725962703 0.000188647021067305
  0.0447310693562031 0.000389667865806786 0.000297145172768154 3.72491005697562e-05  0.00012448157938576  0.00017418771531385
   0.045625776052475 0.000397104779459579 0.000174647432787976 2.86810146622228e-05 8.89039692716627e-05 0.000160585922882714
  0.0464853830635548  0.00040474474218034 0.000436095451457751 4.40402651666991e-05 0.000320049700225163 0.000148750143432158
  0.0473625250160694 0.000412508583519507 0.000743457785767278 5.67291496211074e-05 0.000716072378729866 0.000137786270517702
  0.0482572056353092 0.000420053477089002  0.00124970888884837 7.26853369172263e-05  0.00116852254204114 0.000127626616267898
  0.0491343401372433 0.000427925316059346  0.00146871432116925 7.34279705253528e-05  0.00156051788141529  0.00011856109585929
  0.0499939285218716 0.000435565048943473  0.00186512172838329 8.19180721159338e-05  0.00182638977277648 0.000110451223052257
  0.0508885867893696  0.00044310948943249  0.00197151955834013 8.36812310880473e-05   0.0019421219361133 0.000102737445919529
  0.0517657063901424 0.000450872877656152  0.00190135358188772 8.17730586351444e-05  0.00189303883683235 9.58179104214148e-05
  0.0526252686977386 0.000458061258675598  0.00168571183425643 7.65024264474214e-05  0.00171089062838132 8.95972465035052e-05
  0.0535199157893658 0.000465948211174879  0.00149026748277925 7.12017039977657e-05  0.00142479643995717 8.36528900644166e-05
  0.0543970167636871 0.000473693215129278  0.00101919160786714 5.84124692356597e-05  0.00110217078974072 7.82948646262465e-05
  0.0552565567195415  0.00048111574461652 0.000669532787840451 4.45604930252853e-05 0.000796454078900271 7.34593119917293e-05
  0.0561511851847172 0.000489002440075217 0.000444601694381581 3.62046724616003e-05 0.000533951812208206 6.88172067078422e-05
  0.0570282563567162 0.000496530585160385 0.000353024851904974 3.20721683702409e-05 0.000362502593354184 6.46172398673219e-05
  0.0579053275287151 0.000504184919238651 0.000343469059877111 3.14522326212571e-05  0.00029032258226488 6.07344516304481e-05
  0.0587736181914806 0.000511993789741278 0.000355303701808095 3.17547817215904e-05 0.000314147281990059 5.71750685969386e-05
  0.0596506744623184 0.000519413300788296 0.000424256674475737 3.44222164405478e-05 0.000417990767556681 5.38417879469175e-05
  0.0605277232825756 0.000527049257997479 0.000640951908350017 4.19154669703222e-05 0.000575577311074797 5.07488474689312e-05
  0.0614047646522522 0.000534811381577079  0.00074850495641783 4.28807804564134e-05    0.000755622159773 4.78759368332303e-05
  0.0622905604541302 0.000542184359463316 0.000980203974195854 4.89542480663111e-05  0.00092854079901158 4.51784463331202e-05
  0.0631675869226456 0.000550054340806343  0.00119740556975887 5.37867072483827e-05  0.00106393968652093 4.26929915869686e-05
  0.0640446022152901 0.000557707885089124  0.00124198883452724 5.42611894131576e-05  0.00114459875633555 4.03768787795646e-05
   0.064912848174572 0.000565064872656561  0.00116130115618497 5.22456193196324e-05  0.00116091188246697 3.82373455552045e-05
  0.0657898560166359 0.000573042800853109  0.00122660396862865  5.3173737861606e-05  0.00111300280762804 3.62189587207534e-05
   0.066666841506958 0.000580587599094682 0.000994472864193412 4.52486529047934e-05  0.00100876895456283 3.43326004051192e-05
  0.0675525963306427 0.000588176279001041 0.000816625585864185 4.08600072060814e-05 0.000861249265227888 3.25508800483879e-05
  0.0684295669198036 0.000595937341635409  0.00067121525807405 3.67279599744794e-05  0.00069186978826843 3.08997007157528e-05
  0.0693065375089646 0.000603463781004103 0.000511650212219263 3.19429497641675e-05 0.000518435562577473 2.93523348856204e-05
  0.0701659619808197 0.000610884285370512 0.000360448071712205 1.88789780763805e-05 0.000361290069026694 2.79293806392929e-05
   0.071051687002182 0.000618706867496738 0.000219385727339013 2.07251767255476e-05 0.000225989799472926 2.65525284284339e-05
  0.0719373971223831  0.00062629482149063 0.000117856008093044  1.5209738621799e-05 0.000125974356245566  2.5259719687803e-05
  0.0728143304586411 0.000634055146794078 4.49113054850439e-05 9.17985176380905e-06  6.4355349287255e-05 2.40566654793705e-05
  0.0736824870109558  0.00064151895552176 3.07564404066535e-05 7.75561229305819e-06 3.74723115011943e-05 2.29357969761498e-05
  0.0745594054460526 0.000649170857294431 5.38385989430198e-05 9.96187627144897e-06 3.81177065252994e-05 2.18695134548964e-05
  0.0754363089799881 0.000657039027866953 9.32270350674954e-05 1.28491421567439e-05 5.74500774798081e-05 2.08648164033785e-05
  0.0763132125139236 0.000664456104924097 0.000119982112965491 1.44355546618365e-05 8.54056804927576e-05 1.99174541990924e-05
   0.077190101146698 0.000672215696811266 0.000163327722784256 1.67149968226212e-05 0.000112691374670559 1.90235830660696e-05
  0.0780669748783112  0.00067997516300877  0.00014527695569122  1.4992190515263e-05 0.000132058439584348 1.81796034942059e-05
  0.0789438486099243 0.000687283566219743 0.000169335929526408 1.61216227464558e-05 0.000139132376074485 1.73821743988928e-05
  0.0798207074403763 0.000695042709469325 0.000138663443420514 1.45462131896124e-05 0.000132665146224482 1.66282970978424e-05
  0.0806975588202477 0.000702675487125768 0.000132969960064797 1.41496452801634e-05  0.00011433308206594 1.59150895890071e-05
  0.0815744027495384 0.000710217888155635 0.000109289240616146 1.28058043625206e-05 8.80566794006353e-05 1.52399978153035e-05
  0.0824424624443054 0.000718022859448104 7.29167838547968e-05 1.04800102558354e-05 5.93768529067346e-05 1.46068103582817e-05
  0.0833280608057976 0.000725608756498315  5.8312007514453e-05 9.35476391403681e-06 3.29552667833922e-05 1.39945785007562e-05
  0.0842048674821853 0.000733132690026783 2.18217526345986e-05  5.7497125065106e-06  1.4489081243613e-05 1.34199003928482e-05
   0.085081659257412 0.000740890848541591 2.45200197559309e-05 5.98955582130072e-06 7.08937904117227e-06 1.28746564559577e-05
  0.0859584584832191  0.00074830625275446  2.0693403475739e-05 5.51141492119189e-06 1.22162457985509e-05 1.23570213248973e-05
  0.0868352353572846 0.000756064017056439 3.36201568765498e-05 6.82020029846808e-06 2.93051995444832e-05 1.18653598328896e-05
  0.0877032354474068 0.000763759744406773 5.59028662017444e-05 8.58062637711205e-06 5.56551178468485e-05 1.14026843478917e-05
  0.0885887667536736 0.000771236534022363 9.23531590645298e-05 1.08794277735157e-05 8.84146945523719e-05  1.0953855877548e-05
   0.089465506374836 0.000779101959610352 0.000120440176256703 1.18809604896186e-05 0.000122211986598593 1.05312093089772e-05
  0.0903422459959984  0.00078653452335277 0.000160524430056844 1.36511702569059e-05 0.000152896478491789 1.01289255095278e-05
  0.0912189707159996 0.000794165225219649 0.000184129470119455 1.45641764899068e-05 0.000176661634003054 9.74585647684053e-06
  0.0920956805348396 0.000801921955857266  0.00018965677773621 1.47001145666716e-05 0.000190862006828719 9.38090357882795e-06
  0.0929723829030991 0.000809335964945284 0.000192116972154004 1.47713018357375e-05 0.000194317412577921 9.03303611231489e-06
  0.0938490852713585 0.000817092341801329 0.000180171997533516  1.4247637579424e-05 0.000187354538017763 8.70131028831975e-06
  0.0947169959545135 0.000824894831115157 0.000183021588680311  1.4310055270626e-05 0.000171857160673642 8.38794108212368e-06
  0.0956024304032326  0.00083226196564342  0.00016933801536594  1.3258957386061e-05 0.000149966764639738 8.08279586834905e-06
  0.0964790880680084 0.000840125931447624 0.000114120761497847 1.09190583508269e-05 0.000125524368103031 7.79437296790209e-06
  0.0973557382822037 0.000847538979842817 9.80866743429485e-05 1.00927391580315e-05 0.000101658482138662 7.51884481266052e-06
  0.0982323735952377 0.000855186202777148 7.99311756103345e-05 9.12105865679511e-06 8.12809273902018e-05 7.25553913566849e-06
  0.0991089940071106  0.00086294138416519 5.92693680935958e-05 7.84828988248073e-06 6.65247907367992e-05 7.00380489007377e-06
  0.0999943614006042 0.000870523908020313  5.1990573640712e-05 7.34087270116221e-06 5.84650777329955e-05 6.76067778692924e-06
   0.100870959460735  0.00087827872265049 5.60879991771165e-05  7.3490429125113e-06 5.73172171240683e-05  6.5303966772535e-06
   0.101747542619705 0.000885925126582908 4.37232508765354e-05  6.4924014372383e-06 6.20383426820213e-05  6.3099708414747e-06
   0.102624125778675 0.000893337069650917 6.08220218437046e-05 7.58449646151373e-06   7.094318507188e-05 6.09889428000004e-06
   0.103500671684742 0.000901091185062511  7.1629087841264e-05 8.15153945359985e-06 8.18979771525765e-05 5.89670147162078e-06
   0.104368470609188 0.000908765396030782 7.40467669361996e-05 8.27000730088405e-06 9.25586085775437e-05 5.70483526251488e-06
   0.105245001614094 0.000916302845745748  9.4703152563796e-05 9.28706575460304e-06 0.000101127144094003   5.519018175044e-06
   0.106112755835056 0.000923994541355459 8.19531937988715e-05 8.59772463327082e-06 0.000105906524183908 5.34257108708326e-06
   0.106998033821583 0.000931467319686103 9.22598028564594e-05 8.77340288023936e-06 0.000106069738186459 5.16988747549166e-06
   0.107874527573586 0.000939094247716413 8.50499895496292e-05  8.4026448189769e-06 0.000101337649293082 5.00584746189516e-06
   0.108751013875008 0.000946847191948962 9.19354376425556e-05  8.7178986016174e-06 9.21980321928722e-05 4.84838422778854e-06
   0.109627477824688 0.000954257458616313 6.09554089119924e-05 7.12511225233276e-06 7.96726369470406e-05  4.6971654853958e-06
   0.110503941774368 0.000962009909158144 6.58174227430142e-05 7.36346486114459e-06 6.51080922889556e-05 4.55190626318653e-06
   0.111380375921726 0.000969870267870028 5.35579492332509e-05 6.65669164982133e-06 4.99884398789957e-05 4.41232925105934e-06
   0.112256810069084 0.000977171752561482 3.28690729363148e-05 5.28923044088448e-06 3.57064252103474e-05 4.27816091989635e-06
     0.1131332218647 0.000985031633275649 1.87380830357203e-05 4.13129908580459e-06 2.33930801464485e-05 4.14916148799216e-06
   0.114009626209736 0.000992566957355168 1.57250985989185e-05  3.6734132953177e-06 1.37879651786047e-05 4.02508617676259e-06
    0.11488601565361  0.00100008411794604 7.30427982594408e-06  2.7151555353097e-06  7.1950472250698e-06 3.90571340641174e-06
   0.115762390196323  0.00100783523112402 8.02776743157335e-06 2.77349027781904e-06 3.49650624982019e-06 3.79083275608433e-06
   0.116629995405674  0.00101529005770339 3.13658091869862e-06 2.02458325011341e-06 2.22886679841666e-06 3.68132530067749e-06
   0.117515094578266  0.00102299442480081 5.96581174413439e-06 2.43631733561758e-06 2.68977780216141e-06 3.57374888517815e-06
   0.118391431868076  0.00103074481945554 5.96450276637598e-06 2.40731404346335e-06 4.10054642448192e-06  3.4711717997799e-06
   0.119267746806145  0.00103826075563231 1.90786280747528e-06 1.71271626656519e-06 5.71521412178557e-06 3.37233950228199e-06
   0.120144046843052  0.00104601066863268 4.67843742085898e-06 2.17806904325899e-06 6.94535874934533e-06 3.27709096119779e-06
   0.121020339429379  0.00105352610020678 3.37169477605743e-06 1.95019678310511e-06 7.43183162188109e-06  3.1852684376937e-06
   0.121896602213383  0.00106116749245039 4.10426466311231e-06 2.06403008841217e-06 7.07389201547407e-06 3.09672784639205e-06
   0.122772864997387  0.00106902477389488 1.01007127662568e-05 2.86244812821596e-06 6.01520906573426e-06 3.01132755160065e-06
   0.123649097979069  0.00107621527228803 7.21579970157679e-06 2.34183054139767e-06 4.59043000939153e-06 2.92893368252223e-06
   0.124525330960751   0.0010840720213535 4.74361055303844e-06 1.99573761750304e-06  3.2442388407737e-06 2.84942254309593e-06
   0.125401541590691  0.00109171234984514 5.81084431050273e-06 2.13938022288213e-06 2.44094946219839e-06 2.77267243371263e-06
   0.126277759671211  0.00109911839188907 7.49181371518725e-06 2.35804633439767e-06 2.57566625918371e-06 2.69856645974358e-06
   0.127153947949409  0.00110697443075723 6.75272738439492e-06 2.25882811351574e-06 3.90551135002777e-06 2.62700138376562e-06
   0.128030106425285  0.00111472212430907 1.35003931943079e-05 2.99390484980478e-06 6.50194959338084e-06 2.55787135588365e-06
          0.12890625   0.0011220191982954 1.39572933772924e-05 3.03990365068674e-06 1.02414932600416e-05 2.49107529795795e-06
   0.129782378673553  0.00112987441465443 1.99503309389559e-05 3.54794321868724e-06 1.48265530912073e-05 2.42652239147852e-06
   0.130658507347107  0.00113738715889607 2.77030443319839e-05 4.12210091054756e-06 1.98273864191388e-05 2.36411896636049e-06
   0.131534621119499  0.00114502583710643 3.66979148601088e-05 4.70722021587896e-06 2.47497151239643e-05  2.3037820480011e-06
   0.132410690188408  0.00115275413652157 3.19439735162095e-05 4.38526257415631e-06 2.91043055692597e-05 2.24543182943463e-06
   0.133286759257317  0.00116017608763048 3.83156575770588e-05 4.74275084534106e-06 3.24764035915084e-05 2.18898631178775e-06
   0.134162828326225  0.00116779588434973 4.63157468337901e-05  4.9870738721975e-06 3.45767781757879e-05 2.13437202527276e-06
    0.13503885269165  0.00117543342882649 4.75821572630124e-05 5.03051214347487e-06 3.52778980622917e-05 2.08152218488878e-06
