#      z (A) rho (1e-6/A2) irho (1e-6/A2) rhoM (1e-6/A2) theta (degrees)
-141.68227508   2.06928431   0.00000000   0.00000000 270.00000000
-141.58227508   2.06927234   0.00000000   0.00000000 270.00000000
-141.48227508   2.06926030   0.00000000   0.00000000 270.00000000
-141.38227508   2.06924818   0.00000000   0.00000000 270.00000000
-141.28227508   2.06923599   0.00000000   0.00000000 270.00000000
-141.18227508   2.06922372   0.00000000   0.00000000 270.00000000
-141.08227508   2.06921137   0.00000000   0.00000000 270.00000000
-140.98227508   2.06919894   0.00000000   0.00000000 270.00000000
-140.88227508   2.06918643   0.00000000   0.00000000 270.00000000
-140.78227508   2.06917384   0.00000000   0.00000000 270.00000000
-140.68227508   2.06916118   0.00000000   0.00000000 270.00000000
-140.58227508   2.06914843   0.00000000   0.00000000 270.00000000
-140.48227508   2.06913560   0.00000000   0.00000000 270.00000000
-140.38227508   2.06912270   0.00000000   0.00000000 270.00000000
-140.28227508   2.06910971   0.00000000   0.00000000 270.00000000
-140.18227508   2.06909663   0.00000000   0.00000000 270.00000000
-140.08227508   2.06908348   0.00000000   0.00000000 270.00000000
-139.98227508   2.06907024   0.00000000   0.00000000 270.00000000
-139.88227508   2.06905692   0.00000000   0.00000000 270.00000000
-139.78227508   2.06904352   0.00000000   0.00000000 270.00000000
-139.68227508   2.06903003   0.00000000   0.00000000 270.00000000
-139.58227508   2.06901646   0.00000000   0.00000000 270.00000000
-139.48227508   2.06900280   0.00000000   0.00000000 270.00000000
-139.38227508   2.06898906   0.00000000   0.00000000 270.00000000
-139.28227508   2.06897523   0.00000000   0.00000000 270.00000000
-139.18227508   2.06896131   0.00000000   0.00000000 270.00000000
-139.08227508   2.06894731   0.00000000   0.00000000 270.00000000
-138.98227508   2.06893321   0.00000000   0.00000000 270.00000000
-138.88227508   2.06891904   0.00000000   0.00000000 270.00000000
-138.78227508   2.06890477   0.00000000   0.00000000 270.00000000
-138.68227508   2.06889041   0.00000000   0.00000000 270.00000000
-138.58227508   2.06887596   0.00000000   0.00000000 270.00000000
-138.48227508   2.06886143   0.00000000   0.00000000 270.00000000
-138.38227508   2.06884680   0.00000000   0.00000000 270.00000000
-138.28227508   2.06883208   0.00000000   0.00000000 270.00000000
-138.18227508   2.06881727   0.00000000   0.00000000 270.00000000
-138.08227508   2.06880237   0.00000000   0.00000000 270.00000000
-137.98227508   2.06878738   0.00000000   0.00000000 270.00000000
-137.88227508   2.06877229   0.00000000   0.00000000 270.00000000
-137.78227508   2.06875711   0.00000000   0.00000000 270.00000000
-137.68227508   2.06874183   0.00000000   0.00000000 270.00000000
-137.58227508   2.06872646   0.00000000   0.00000000 270.00000000
-137.48227508   2.06871100   0.00000000   0.00000000 270.00000000
-137.38227508   2.06869544   0.00000000   0.00000000 270.00000000
-137.28227508   2.06867978   0.00000000   0.00000000 270.00000000
-137.18227508   2.06866403   0.00000000   0.00000000 270.00000000
-137.08227508   2.06864818   0.00000000   0.00000000 270.00000000
-136.98227508   2.06863223   0.00000000   0.00000000 270.00000000
-136.88227508   2.06861618   0.00000000   0.00000000 270.00000000
-136.78227508   2.06860004   0.00000000   0.00000000 270.00000000
-136.68227508   2.06858379   0.00000000   0.00000000 270.00000000
-136.58227508   2.06856745   0.00000000   0.00000000 270.00000000
-136.48227508   2.06855101   0.00000000   0.00000000 270.00000000
-136.38227508   2.06853446   0.00000000   0.00000000 270.00000000
-136.28227508   2.06851781   0.00000000   0.00000000 270.00000000
-136.18227508   2.06850106   0.00000000   0.00000000 270.00000000
-136.08227508   2.06848421   0.00000000   0.00000000 270.00000000
-135.98227508   2.06846726   0.00000000   0.00000000 270.00000000
-135.88227508   2.06845020   0.00000000   0.00000000 270.00000000
-135.78227508   2.06843304   0.00000000   0.00000000 270.00000000
-135.68227508   2.06841577   0.00000000   0.00000000 270.00000000
-135.58227508   2.06839840   0.00000000   0.00000000 270.00000000
-135.48227508   2.06838092   0.00000000   0.00000000 270.00000000
-135.38227508   2.06836333   0.00000000   0.00000000 270.00000000
-135.28227508   2.06834564   0.00000000   0.00000000 270.00000000
-135.18227508   2.06832784   0.00000000   0.00000000 270.00000000
-135.08227508   2.06830993   0.00000000   0.00000000 270.00000000
-134.98227508   2.06829192   0.00000000   0.00000000 270.00000000
-134.88227508   2.06827379   0.00000000   0.00000000 270.00000000
-134.78227508   2.06825555   0.00000000   0.00000000 270.00000000
-134.68227508   2.06823721   0.00000000   0.00000000 270.00000000
-134.58227508   2.06821875   0.00000000   0.00000000 270.00000000
-134.48227508   2.06820018   0.00000000   0.00000000 270.00000000
-134.38227508   2.06818150   0.00000000   0.00000000 270.00000000
-134.28227508   2.06816270   0.00000000   0.00000000 270.00000000
-134.18227508   2.06814379   0.00000000   0.00000000 270.00000000
-134.08227508   2.06812477   0.00000000   0.00000000 270.00000000
-133.98227508   2.06810563   0.00000000   0.00000000 270.00000000
-133.88227508   2.06808638   0.00000000   0.00000000 270.00000000
-133.78227508   2.06806701   0.00000000   0.00000000 270.00000000
-133.68227508   2.06804753   0.00000000   0.00000000 270.00000000
-133.58227508   2.06802793   0.00000000   0.00000000 270.00000000
-133.48227508   2.06800821   0.00000000   0.00000000 270.00000000
-133.38227508   2.06798837   0.00000000   0.00000000 270.00000000
-133.28227508   2.06796841   0.00000000   0.00000000 270.00000000
-133.18227508   2.06794834   0.00000000   0.00000000 270.00000000
-133.08227508   2.06792814   0.00000000   0.00000000 270.00000000
-132.98227508   2.06790782   0.00000000   0.00000000 270.00000000
-132.88227508   2.06788738   0.00000000   0.00000000 270.00000000
-132.78227508   2.06786682   0.00000000   0.00000000 270.00000000
-132.68227508   2.06784614   0.00000000   0.00000000 270.00000000
-132.58227508   2.06782533   0.00000000   0.00000000 270.00000000
-132.48227508   2.06780440   0.00000000   0.00000000 270.00000000
-132.38227508   2.06778334   0.00000000   0.00000000 270.00000000
-132.28227508   2.06776216   0.00000000   0.00000000 270.00000000
-132.18227508   2.06774085   0.00000000   0.00000000 270.00000000
-132.08227508   2.06771942   0.00000000   0.00000000 270.00000000
-131.98227508   2.06769785   0.00000000   0.00000000 270.00000000
-131.88227508   2.06767616   0.00000000   0.00000000 270.00000000
-131.78227508   2.06765435   0.00000000   0.00000000 270.00000000
-131.68227508   2.06763240   0.00000000   0.00000000 270.00000000
-131.58227508   2.06761032   0.00000000   0.00000000 270.00000000
-131.48227508   2.06758811   0.00000000   0.00000000 270.00000000
-131.38227508   2.06756577   0.00000000   0.00000000 270.00000000
-131.28227508   2.06754330   0.00000000   0.00000000 270.00000000
-131.18227508   2.06752070   0.00000000   0.00000000 270.00000000
-131.08227508   2.06749796   0.00000000   0.00000000 270.00000000
-130.98227508   2.06747509   0.00000000   0.00000000 270.00000000
-130.88227508   2.06745208   0.00000000   0.00000000 270.00000000
-130.78227508   2.06742894   0.00000000   0.00000000 270.00000000
-130.68227508   2.06740566   0.00000000   0.00000000 270.00000000
-130.58227508   2.06738225   0.00000000   0.00000000 270.00000000
-130.48227508   2.06735870   0.00000000   0.00000000 270.00000000
-130.38227508   2.06733501   0.00000000   0.00000000 270.00000000
-130.28227508   2.06731118   0.00000000   0.00000000 270.00000000
-130.18227508   2.06728721   0.00000000   0.00000000 270.00000000
-130.08227508   2.06726310   0.00000000   0.00000000 270.00000000
-129.98227508   2.06723885   0.00000000   0.00000000 270.00000000
-129.88227508   2.06721446   0.00000000   0.00000000 270.00000000
-129.78227508   2.06718993   0.00000000   0.00000000 270.00000000
-129.68227508   2.06716525   0.00000000   0.00000000 270.00000000
-129.58227508   2.06714043   0.00000000   0.00000000 270.00000000
-129.48227508   2.06711546   0.00000000   0.00000000 270.00000000
-129.38227508   2.06709035   0.00000000   0.00000000 270.00000000
-129.28227508   2.06706509   0.00000000   0.00000000 270.00000000
-129.18227508   2.06703969   0.00000000   0.00000000 270.00000000
-129.08227508   2.06701414   0.00000000   0.00000000 270.00000000
-128.98227508   2.06698844   0.00000000   0.00000000 270.00000000
-128.88227508   2.06696259   0.00000000   0.00000000 270.00000000
-128.78227508   2.06693659   0.00000000   0.00000000 270.00000000
-128.68227508   2.06691044   0.00000000   0.00000000 270.00000000
-128.58227508   2.06688414   0.00000000   0.00000000 270.00000000
-128.48227508   2.06685769   0.00000000   0.00000000 270.00000000
-128.38227508   2.06683108   0.00000000   0.00000000 270.00000000
-128.28227508   2.06680432   0.00000000   0.00000000 270.00000000
-128.18227508   2.06677741   0.00000000   0.00000000 270.00000000
-128.08227508   2.06675034   0.00000000   0.00000000 270.00000000
-127.98227508   2.06672312   0.00000000   0.00000000 270.00000000
-127.88227508   2.06669574   0.00000000   0.00000000 270.00000000
-127.78227508   2.06666820   0.00000000   0.00000000 270.00000000
-127.68227508   2.06664050   0.00000000   0.00000000 270.00000000
-127.58227508   2.06661264   0.00000000   0.00000000 270.00000000
-127.48227508   2.06658463   0.00000000   0.00000000 270.00000000
-127.38227508   2.06655645   0.00000000   0.00000000 270.00000000
-127.28227508   2.06652812   0.00000000   0.00000000 270.00000000
-127.18227508   2.06649962   0.00000000   0.00000000 270.00000000
-127.08227508   2.06647095   0.00000000   0.00000000 270.00000000
-126.98227508   2.06644213   0.00000000   0.00000000 270.00000000
-126.88227508   2.06641314   0.00000000   0.00000000 270.00000000
-126.78227508   2.06638398   0.00000000   0.00000000 270.00000000
-126.68227508   2.06635466   0.00000000   0.00000000 270.00000000
-126.58227508   2.06632517   0.00000000   0.00000000 270.00000000
-126.48227508   2.06629551   0.00000000   0.00000000 270.00000000
-126.38227508   2.06626568   0.00000000   0.00000000 270.00000000
-126.28227508   2.06623569   0.00000000   0.00000000 270.00000000
-126.18227508   2.06620552   0.00000000   0.00000000 270.00000000
-126.08227508   2.06617519   0.00000000   0.00000000 270.00000000
-125.98227508   2.06614468   0.00000000   0.00000000 270.00000000
-125.88227508   2.06611399   0.00000000   0.00000000 270.00000000
-125.78227508   2.06608314   0.00000000   0.00000000 270.00000000
-125.68227508   2.06605211   0.00000000   0.00000000 270.00000000
-125.58227508   2.06602090   0.00000000   0.00000000 270.00000000
-125.48227508   2.06598952   0.00000000   0.00000000 270.00000000
-125.38227508   2.06595796   0.00000000   0.00000000 270.00000000
-125.28227508   2.06592623   0.00000000   0.00000000 270.00000000
-125.18227508   2.06589431   0.00000000   0.00000000 270.00000000
-125.08227508   2.06586222   0.00000000   0.00000000 270.00000000
-124.98227508   2.06582994   0.00000000   0.00000000 270.00000000
-124.88227508   2.06579748   0.00000000   0.00000000 270.00000000
-124.78227508   2.06576485   0.00000000   0.00000000 270.00000000
-124.68227508   2.06573202   0.00000000   0.00000000 270.00000000
-124.58227508   2.06569902   0.00000000   0.00000000 270.00000000
-124.48227508   2.06566583   0.00000000   0.00000000 270.00000000
-124.38227508   2.06563245   0.00000000   0.00000000 270.00000000
-124.28227508   2.06559889   0.00000000   0.00000000 270.00000000
-124.18227508   2.06556514   0.00000000   0.00000000 270.00000000
-124.08227508   2.06553120   0.00000000   0.00000000 270.00000000
-123.98227508   2.06549707   0.00000000   0.00000000 270.00000000
-123.88227508   2.06546275   0.00000000   0.00000000 270.00000000
-123.78227508   2.06542824   0.00000000   0.00000000 270.00000000
-123.68227508   2.06539354   0.00000000   0.00000000 270.00000000
-123.58227508   2.06535864   0.00000000   0.00000000 270.00000000
-123.48227508   2.06532355   0.00000000   0.00000000 270.00000000
-123.38227508   2.06528827   0.00000000   0.00000000 270.00000000
-123.28227508   2.06525279   0.00000000   0.00000000 270.00000000
-123.18227508   2.06521711   0.00000000   0.00000000 270.00000000
-123.08227508   2.06518124   0.00000000   0.00000000 270.00000000
-122.98227508   2.06514517   0.00000000   0.00000000 270.00000000
-122.88227508   2.06510890   0.00000000   0.00000000 270.00000000
-122.78227508   2.06507242   0.00000000   0.00000000 270.00000000
-122.68227508   2.06503575   0.00000000   0.00000000 270.00000000
-122.58227508   2.06499888   0.00000000   0.00000000 270.00000000
-122.48227508   2.06496180   0.00000000   0.00000000 270.00000000
-122.38227508   2.06492451   0.00000000   0.00000000 270.00000000
-122.28227508   2.06488703   0.00000000   0.00000000 270.00000000
-122.18227508   2.06484933   0.00000000   0.00000000 270.00000000
-122.08227508   2.06481143   0.00000000   0.00000000 270.00000000
-121.98227508   2.06477332   0.00000000   0.00000000 270.00000000
-121.88227508   2.06473500   0.00000000   0.00000000 270.00000000
-121.78227508   2.06469647   0.00000000   0.00000000 270.00000000
-121.68227508   2.06465773   0.00000000   0.00000000 270.00000000
-121.58227508   2.06461878   0.00000000   0.00000000 270.00000000
-121.48227508   2.06457962   0.00000000   0.00000000 270.00000000
-121.38227508   2.06454024   0.00000000   0.00000000 270.00000000
-121.28227508   2.06450065   0.00000000   0.00000000 270.00000000
-121.18227508   2.06446084   0.00000000   0.00000000 270.00000000
-121.08227508   2.06442081   0.00000000   0.00000000 270.00000000
-120.98227508   2.06438057   0.00000000   0.00000000 270.00000000
-120.88227508   2.06434011   0.00000000   0.00000000 270.00000000
-120.78227508   2.06429943   0.00000000   0.00000000 270.00000000
-120.68227508   2.06425852   0.00000000   0.00000000 270.00000000
-120.58227508   2.06421740   0.00000000   0.00000000 270.00000000
-120.48227508   2.06417605   0.00000000   0.00000000 270.00000000
-120.38227508   2.06413448   0.00000000   0.00000000 270.00000000
-120.28227508   2.06409268   0.00000000   0.00000000 270.00000000
-120.18227508   2.06405066   0.00000000   0.00000000 270.00000000
-120.08227508   2.06400841   0.00000000   0.00000000 270.00000000
-119.98227508   2.06396593   0.00000000   0.00000000 270.00000000
-119.88227508   2.06392322   0.00000000   0.00000000 270.00000000
-119.78227508   2.06388029   0.00000000   0.00000000 270.00000000
-119.68227508   2.06383712   0.00000000   0.00000000 270.00000000
-119.58227508   2.06379372   0.00000000   0.00000000 270.00000000
-119.48227508   2.06375008   0.00000000   0.00000000 270.00000000
-119.38227508   2.06370621   0.00000000   0.00000000 270.00000000
-119.28227508   2.06366211   0.00000000   0.00000000 270.00000000
-119.18227508   2.06361777   0.00000000   0.00000000 270.00000000
-119.08227508   2.06357319   0.00000000   0.00000000 270.00000000
-118.98227508   2.06352838   0.00000000   0.00000000 270.00000000
-118.88227508   2.06348332   0.00000000   0.00000000 270.00000000
-118.78227508   2.06343802   0.00000000   0.00000000 270.00000000
-118.68227508   2.06339248   0.00000000   0.00000000 270.00000000
-118.58227508   2.06334670   0.00000000   0.00000000 270.00000000
-118.48227508   2.06330068   0.00000000   0.00000000 270.00000000
-118.38227508   2.06325440   0.00000000   0.00000000 270.00000000
-118.28227508   2.06320789   0.00000000   0.00000000 270.00000000
-118.18227508   2.06316112   0.00000000   0.00000000 270.00000000
-118.08227508   2.06311411   0.00000000   0.00000000 270.00000000
-117.98227508   2.06306685   0.00000000   0.00000000 270.00000000
-117.88227508   2.06301933   0.00000000   0.00000000 270.00000000
-117.78227508   2.06297157   0.00000000   0.00000000 270.00000000
-117.68227508   2.06292355   0.00000000   0.00000000 270.00000000
-117.58227508   2.06287528   0.00000000   0.00000000 270.00000000
-117.48227508   2.06282675   0.00000000   0.00000000 270.00000000
-117.38227508   2.06277797   0.00000000   0.00000000 270.00000000
-117.28227508   2.06272893   0.00000000   0.00000000 270.00000000
-117.18227508   2.06267963   0.00000000   0.00000000 270.00000000
-117.08227508   2.06263007   0.00000000   0.00000000 270.00000000
-116.98227508   2.06258025   0.00000000   0.00000000 270.00000000
-116.88227508   2.06253017   0.00000000   0.00000000 270.00000000
-116.78227508   2.06247982   0.00000000   0.00000000 270.00000000
-116.68227508   2.06242921   0.00000000   0.00000000 270.00000000
-116.58227508   2.06237834   0.00000000   0.00000000 270.00000000
-116.48227508   2.06232719   0.00000000   0.00000000 270.00000000
-116.38227508   2.06227579   0.00000000   0.00000000 270.00000000
-116.28227508   2.06222411   0.00000000   0.00000000 270.00000000
-116.18227508   2.06217216   0.00000000   0.00000000 270.00000000
-116.08227508   2.06211994   0.00000000   0.00000000 270.00000000
-115.98227508   2.06206745   0.00000000   0.00000000 270.00000000
-115.88227508   2.06201468   0.00000000   0.00000000 270.00000000
-115.78227508   2.06196164   0.00000000   0.00000000 270.00000000
-115.68227508   2.06190832   0.00000000   0.00000000 270.00000000
-115.58227508   2.06185473   0.00000000   0.00000000 270.00000000
-115.48227508   2.06180086   0.00000000   0.00000000 270.00000000
-115.38227508   2.06174671   0.00000000   0.00000000 270.00000000
-115.28227508   2.06169227   0.00000000   0.00000000 270.00000000
-115.18227508   2.06163756   0.00000000   0.00000000 270.00000000
-115.08227508   2.06158256   0.00000000   0.00000000 270.00000000
-114.98227508   2.06152728   0.00000000   0.00000000 270.00000000
-114.88227508   2.06147171   0.00000000   0.00000000 270.00000000
-114.78227508   2.06141585   0.00000000   0.00000000 270.00000000
-114.68227508   2.06135971   0.00000000   0.00000000 270.00000000
-114.58227508   2.06130328   0.00000000   0.00000000 270.00000000
-114.48227508   2.06124655   0.00000000   0.00000000 270.00000000
-114.38227508   2.06118954   0.00000000   0.00000000 270.00000000
-114.28227508   2.06113223   0.00000000   0.00000000 270.00000000
-114.18227508   2.06107463   0.00000000   0.00000000 270.00000000
-114.08227508   2.06101673   0.00000000   0.00000000 270.00000000
-113.98227508   2.06095853   0.00000000   0.00000000 270.00000000
-113.88227508   2.06090004   0.00000000   0.00000000 270.00000000
-113.78227508   2.06084124   0.00000000   0.00000000 270.00000000
-113.68227508   2.06078215   0.00000000   0.00000000 270.00000000
-113.58227508   2.06072275   0.00000000   0.00000000 270.00000000
-113.48227508   2.06066305   0.00000000   0.00000000 270.00000000
-113.38227508   2.06060305   0.00000000   0.00000000 270.00000000
-113.28227508   2.06054274   0.00000000   0.00000000 270.00000000
-113.18227508   2.06048212   0.00000000   0.00000000 270.00000000
-113.08227508   2.06042120   0.00000000   0.00000000 270.00000000
-112.98227508   2.06035997   0.00000000   0.00000000 270.00000000
-112.88227508   2.06029842   0.00000000   0.00000000 270.00000000
-112.78227508   2.06023656   0.00000000   0.00000000 270.00000000
-112.68227508   2.06017439   0.00000000   0.00000000 270.00000000
-112.58227508   2.06011190   0.00000000   0.00000000 270.00000000
-112.48227508   2.06004910   0.00000000   0.00000000 270.00000000
-112.38227508   2.05998598   0.00000000   0.00000000 270.00000000
-112.28227508   2.05992254   0.00000000   0.00000000 270.00000000
-112.18227508   2.05985878   0.00000000   0.00000000 270.00000000
-112.08227508   2.05979470   0.00000000   0.00000000 270.00000000
-111.98227508   2.05973030   0.00000000   0.00000000 270.00000000
-111.88227508   2.05966557   0.00000000   0.00000000 270.00000000
-111.78227508   2.05960052   0.00000000   0.00000000 270.00000000
-111.68227508   2.05953514   0.00000000   0.00000000 270.00000000
