#      z (A) rho (1e-6/A2) irho (1e-6/A2) rhoM (1e-6/A2) theta (degrees)
-87.38265576   2.06963185   0.00000000   0.00000000 270.00000000
-87.28265576   2.06961634   0.00000000   0.00000000 270.00000000
-87.18265576   2.06960068   0.00000000   0.00000000 270.00000000
-87.08265576   2.06958486   0.00000000   0.00000000 270.00000000
-86.98265576   2.06956887   0.00000000   0.00000000 270.00000000
-86.88265576   2.06955272   0.00000000   0.00000000 270.00000000
-86.78265576   2.06953641   0.00000000   0.00000000 270.00000000
-86.68265576   2.06951992   0.00000000   0.00000000 270.00000000
-86.58265576   2.06950327   0.00000000   0.00000000 270.00000000
-86.48265576   2.06948644   0.00000000   0.00000000 270.00000000
-86.38265576   2.06946945   0.00000000   0.00000000 270.00000000
-86.28265576   2.06945227   0.00000000   0.00000000 270.00000000
-86.18265576   2.06943493   0.00000000   0.00000000 270.00000000
-86.08265576   2.06941740   0.00000000   0.00000000 270.00000000
-85.98265576   2.06939970   0.00000000   0.00000000 270.00000000
-85.88265576   2.06938182   0.00000000   0.00000000 270.00000000
-85.78265576   2.06936375   0.00000000   0.00000000 270.00000000
-85.68265576   2.06934551   0.00000000   0.00000000 270.00000000
-85.58265576   2.06932707   0.00000000   0.00000000 270.00000000
-85.48265576   2.06930845   0.00000000   0.00000000 270.00000000
-85.38265576   2.06928964   0.00000000   0.00000000 270.00000000
-85.28265576   2.06927064   0.00000000   0.00000000 270.00000000
-85.18265576   2.06925145   0.00000000   0.00000000 270.00000000
-85.08265576   2.06923207   0.00000000   0.00000000 270.00000000
-84.98265576   2.06921249   0.00000000   0.00000000 270.00000000
-84.88265576   2.06919271   0.00000000   0.00000000 270.00000000
-84.78265576   2.06917273   0.00000000   0.00000000 270.00000000
-84.68265576   2.06915256   0.00000000   0.00000000 270.00000000
-84.58265576   2.06913218   0.00000000   0.00000000 270.00000000
-84.48265576   2.06911159   0.00000000   0.00000000 270.00000000
-84.38265576   2.06909080   0.00000000   0.00000000 270.00000000
-84.28265576   2.06906981   0.00000000   0.00000000 270.00000000
-84.18265576   2.06904860   0.00000000   0.00000000 270.00000000
-84.08265576   2.06902718   0.00000000   0.00000000 270.00000000
-83.98265576   2.06900555   0.00000000   0.00000000 270.00000000
-83.88265576   2.06898370   0.00000000   0.00000000 270.00000000
-83.78265576   2.06896164   0.00000000   0.00000000 270.00000000
-83.68265576   2.06893936   0.00000000   0.00000000 270.00000000
-83.58265576   2.06891685   0.00000000   0.00000000 270.00000000
-83.48265576   2.06889412   0.00000000   0.00000000 270.00000000
-83.38265576   2.06887117   0.00000000   0.00000000 270.00000000
-83.28265576   2.06884800   0.00000000   0.00000000 270.00000000
-83.18265576   2.06882459   0.00000000   0.00000000 270.00000000
-83.08265576   2.06880095   0.00000000   0.00000000 270.00000000
-82.98265576   2.06877708   0.00000000   0.00000000 270.00000000
-82.88265576   2.06875298   0.00000000   0.00000000 270.00000000
-82.78265576   2.06872864   0.00000000   0.00000000 270.00000000
-82.68265576   2.06870406   0.00000000   0.00000000 270.00000000
-82.58265576   2.06867924   0.00000000   0.00000000 270.00000000
-82.48265576   2.06865417   0.00000000   0.00000000 270.00000000
-82.38265576   2.06862886   0.00000000   0.00000000 270.00000000
-82.28265576   2.06860331   0.00000000   0.00000000 270.00000000
-82.18265576   2.06857750   0.00000000   0.00000000 270.00000000
-82.08265576   2.06855145   0.00000000   0.00000000 270.00000000
-81.98265576   2.06852514   0.00000000   0.00000000 270.00000000
-81.88265576   2.06849858   0.00000000   0.00000000 270.00000000
-81.78265576   2.06847176   0.00000000   0.00000000 270.00000000
-81.68265576   2.06844467   0.00000000   0.00000000 270.00000000
-81.58265576   2.06841733   0.00000000   0.00000000 270.00000000
-81.48265576   2.06838972   0.00000000   0.00000000 270.00000000
-81.38265576   2.06836185   0.00000000   0.00000000 270.00000000
-81.28265576   2.06833371   0.00000000   0.00000000 270.00000000
-81.18265576   2.06830529   0.00000000   0.00000000 270.00000000
-81.08265576   2.06827661   0.00000000   0.00000000 270.00000000
-80.98265576   2.06824764   0.00000000   0.00000000 270.00000000
-80.88265576   2.06821840   0.00000000   0.00000000 270.00000000
-80.78265576   2.06818888   0.00000000   0.00000000 270.00000000
-80.68265576   2.06815908   0.00000000   0.00000000 270.00000000
-80.58265576   2.06812899   0.00000000   0.00000000 270.00000000
-80.48265576   2.06809862   0.00000000   0.00000000 270.00000000
-80.38265576   2.06806795   0.00000000   0.00000000 270.00000000
-80.28265576   2.06803700   0.00000000   0.00000000 270.00000000
-80.18265576   2.06800575   0.00000000   0.00000000 270.00000000
-80.08265576   2.06797420   0.00000000   0.00000000 270.00000000
-79.98265576   2.06794235   0.00000000   0.00000000 270.00000000
-79.88265576   2.06791021   0.00000000   0.00000000 270.00000000
-79.78265576   2.06787775   0.00000000   0.00000000 270.00000000
-79.68265576   2.06784500   0.00000000   0.00000000 270.00000000
-79.58265576   2.06781193   0.00000000   0.00000000 270.00000000
-79.48265576   2.06777855   0.00000000   0.00000000 270.00000000
-79.38265576   2.06774486   0.00000000   0.00000000 270.00000000
-79.28265576   2.06771085   0.00000000   0.00000000 270.00000000
-79.18265576   2.06767652   0.00000000   0.00000000 270.00000000
-79.08265576   2.06764186   0.00000000   0.00000000 270.00000000
-78.98265576   2.06760689   0.00000000   0.00000000 270.00000000
-78.88265576   2.06757159   0.00000000   0.00000000 270.00000000
-78.78265576   2.06753595   0.00000000   0.00000000 270.00000000
-78.68265576   2.06749999   0.00000000   0.00000000 270.00000000
-78.58265576   2.06746369   0.00000000   0.00000000 270.00000000
-78.48265576   2.06742705   0.00000000   0.00000000 270.00000000
-78.38265576   2.06739007   0.00000000   0.00000000 270.00000000
-78.28265576   2.06735275   0.00000000   0.00000000 270.00000000
-78.18265576   2.06731508   0.00000000   0.00000000 270.00000000
-78.08265576   2.06727706   0.00000000   0.00000000 270.00000000
-77.98265576   2.06723870   0.00000000   0.00000000 270.00000000
-77.88265576   2.06719997   0.00000000   0.00000000 270.00000000
-77.78265576   2.06716089   0.00000000   0.00000000 270.00000000
-77.68265576   2.06712146   0.00000000   0.00000000 270.00000000
-77.58265576   2.06708165   0.00000000   0.00000000 270.00000000
-77.48265576   2.06704149   0.00000000   0.00000000 270.00000000
-77.38265576   2.06700095   0.00000000   0.00000000 270.00000000
-77.28265576   2.06696004   0.00000000   0.00000000 270.00000000
-77.18265576   2.06691876   0.00000000   0.00000000 270.00000000
-77.08265576   2.06687710   0.00000000   0.00000000 270.00000000
-76.98265576   2.06683506   0.00000000   0.00000000 270.00000000
-76.88265576   2.06679264   0.00000000   0.00000000 270.00000000
-76.78265576   2.06674983   0.00000000   0.00000000 270.00000000
-76.68265576   2.06670663   0.00000000   0.00000000 270.00000000
-76.58265576   2.06666304   0.00000000   0.00000000 270.00000000
-76.48265576   2.06661906   0.00000000   0.00000000 270.00000000
-76.38265576   2.06657467   0.00000000   0.00000000 270.00000000
-76.28265576   2.06652989   0.00000000   0.00000000 270.00000000
-76.18265576   2.06648470   0.00000000   0.00000000 270.00000000
-76.08265576   2.06643910   0.00000000   0.00000000 270.00000000
-75.98265576   2.06639309   0.00000000   0.00000000 270.00000000
-75.88265576   2.06634667   0.00000000   0.00000000 270.00000000
-75.78265576   2.06629983   0.00000000   0.00000000 270.00000000
-75.68265576   2.06625257   0.00000000   0.00000000 270.00000000
-75.58265576   2.06620489   0.00000000   0.00000000 270.00000000
-75.48265576   2.06615678   0.00000000   0.00000000 270.00000000
-75.38265576   2.06610824   0.00000000   0.00000000 270.00000000
-75.28265576   2.06605927   0.00000000   0.00000000 270.00000000
-75.18265576   2.06600986   0.00000000   0.00000000 270.00000000
-75.08265576   2.06596001   0.00000000   0.00000000 270.00000000
-74.98265576   2.06590972   0.00000000   0.00000000 270.00000000
-74.88265576   2.06585898   0.00000000   0.00000000 270.00000000
-74.78265576   2.06580779   0.00000000   0.00000000 270.00000000
-74.68265576   2.06575615   0.00000000   0.00000000 270.00000000
-74.58265576   2.06570405   0.00000000   0.00000000 270.00000000
-74.48265576   2.06565149   0.00000000   0.00000000 270.00000000
-74.38265576   2.06559847   0.00000000   0.00000000 270.00000000
-74.28265576   2.06554498   0.00000000   0.00000000 270.00000000
-74.18265576   2.06549103   0.00000000   0.00000000 270.00000000
-74.08265576   2.06543659   0.00000000   0.00000000 270.00000000
-73.98265576   2.06538168   0.00000000   0.00000000 270.00000000
-73.88265576   2.06532629   0.00000000   0.00000000 270.00000000
-73.78265576   2.06527042   0.00000000   0.00000000 270.00000000
-73.68265576   2.06521405   0.00000000   0.00000000 270.00000000
-73.58265576   2.06515720   0.00000000   0.00000000 270.00000000
-73.48265576   2.06509985   0.00000000   0.00000000 270.00000000
-73.38265576   2.06504200   0.00000000   0.00000000 270.00000000
-73.28265576   2.06498365   0.00000000   0.00000000 270.00000000
-73.18265576   2.06492479   0.00000000   0.00000000 270.00000000
-73.08265576   2.06486542   0.00000000   0.00000000 270.00000000
-72.98265576   2.06480554   0.00000000   0.00000000 270.00000000
-72.88265576   2.06474514   0.00000000   0.00000000 270.00000000
-72.78265576   2.06468422   0.00000000   0.00000000 270.00000000
-72.68265576   2.06462278   0.00000000   0.00000000 270.00000000
-72.58265576   2.06456081   0.00000000   0.00000000 270.00000000
-72.48265576   2.06449830   0.00000000   0.00000000 270.00000000
-72.38265576   2.06443526   0.00000000   0.00000000 270.00000000
-72.28265576   2.06437168   0.00000000   0.00000000 270.00000000
-72.18265576   2.06430755   0.00000000   0.00000000 270.00000000
-72.08265576   2.06424288   0.00000000   0.00000000 270.00000000
-71.98265576   2.06417765   0.00000000   0.00000000 270.00000000
-71.88265576   2.06411187   0.00000000   0.00000000 270.00000000
-71.78265576   2.06404553   0.00000000   0.00000000 270.00000000
-71.68265576   2.06397862   0.00000000   0.00000000 270.00000000
-71.58265576   2.06391115   0.00000000   0.00000000 270.00000000
-71.48265576   2.06384311   0.00000000   0.00000000 270.00000000
-71.38265576   2.06377449   0.00000000   0.00000000 270.00000000
-71.28265576   2.06370529   0.00000000   0.00000000 270.00000000
-71.18265576   2.06363550   0.00000000   0.00000000 270.00000000
-71.08265576   2.06356513   0.00000000   0.00000000 270.00000000
-70.98265576   2.06349417   0.00000000   0.00000000 270.00000000
-70.88265576   2.06342261   0.00000000   0.00000000 270.00000000
-70.78265576   2.06335045   0.00000000   0.00000000 270.00000000
-70.68265576   2.06327768   0.00000000   0.00000000 270.00000000
-70.58265576   2.06320431   0.00000000   0.00000000 270.00000000
-70.48265576   2.06313032   0.00000000   0.00000000 270.00000000
-70.38265576   2.06305572   0.00000000   0.00000000 270.00000000
-70.28265576   2.06298049   0.00000000   0.00000000 270.00000000
-70.18265576   2.06290464   0.00000000   0.00000000 270.00000000
-70.08265576   2.06282816   0.00000000   0.00000000 270.00000000
-69.98265576   2.06275104   0.00000000   0.00000000 270.00000000
-69.88265576   2.06267329   0.00000000   0.00000000 270.00000000
-69.78265576   2.06259489   0.00000000   0.00000000 270.00000000
-69.68265576   2.06251585   0.00000000   0.00000000 270.00000000
-69.58265576   2.06243615   0.00000000   0.00000000 270.00000000
-69.48265576   2.06235580   0.00000000   0.00000000 270.00000000
-69.38265576   2.06227479   0.00000000   0.00000000 270.00000000
-69.28265576   2.06219311   0.00000000   0.00000000 270.00000000
-69.18265576   2.06211076   0.00000000   0.00000000 270.00000000
-69.08265576   2.06202773   0.00000000   0.00000000 270.00000000
-68.98265576   2.06194403   0.00000000   0.00000000 270.00000000
-68.88265576   2.06185965   0.00000000   0.00000000 270.00000000
-68.78265576   2.06177457   0.00000000   0.00000000 270.00000000
-68.68265576   2.06168881   0.00000000   0.00000000 270.00000000
-68.58265576   2.06160235   0.00000000   0.00000000 270.00000000
-68.48265576   2.06151518   0.00000000   0.00000000 270.00000000
-68.38265576   2.06142731   0.00000000   0.00000000 270.00000000
-68.28265576   2.06133873   0.00000000   0.00000000 270.00000000
-68.18265576   2.06124943   0.00000000   0.00000000 270.00000000
-68.08265576   2.06115941   0.00000000   0.00000000 270.00000000
-67.98265576   2.06106867   0.00000000   0.00000000 270.00000000
-67.88265576   2.06097720   0.00000000   0.00000000 270.00000000
-67.78265576   2.06088499   0.00000000   0.00000000 270.00000000
-67.68265576   2.06079204   0.00000000   0.00000000 270.00000000
-67.58265576   2.06069835   0.00000000   0.00000000 270.00000000
-67.48265576   2.06060391   0.00000000   0.00000000 270.00000000
-67.38265576   2.06050871   0.00000000   0.00000000 270.00000000
-67.28265576   2.06041276   0.00000000   0.00000000 270.00000000
-67.18265576   2.06031604   0.00000000   0.00000000 270.00000000
-67.08265576   2.06021855   0.00000000   0.00000000 270.00000000
-66.98265576   2.06012029   0.00000000   0.00000000 270.00000000
-66.88265576   2.06002125   0.00000000   0.00000000 270.00000000
-66.78265576   2.05992142   0.00000000   0.00000000 270.00000000
-66.68265576   2.05982081   0.00000000   0.00000000 270.00000000
-66.58265576   2.05971940   0.00000000   0.00000000 270.00000000
-66.48265576   2.05961719   0.00000000   0.00000000 270.00000000
-66.38265576   2.05951418   0.00000000   0.00000000 270.00000000
-66.28265576   2.05941036   0.00000000   0.00000000 270.00000000
-66.18265576   2.05930573   0.00000000   0.00000000 270.00000000
-66.08265576   2.05920028   0.00000000   0.00000000 270.00000000
-65.98265576   2.05909400   0.00000000   0.00000000 270.00000000
-65.88265576   2.05898689   0.00000000   0.00000000 270.00000000
-65.78265576   2.05887895   0.00000000   0.00000000 270.00000000
-65.68265576   2.05877017   0.00000000   0.00000000 270.00000000
-65.58265576   2.05866054   0.00000000   0.00000000 270.00000000
-65.48265576   2.05855006   0.00000000   0.00000000 270.00000000
-65.38265576   2.05843873   0.00000000   0.00000000 270.00000000
-65.28265576   2.05832653   0.00000000   0.00000000 270.00000000
-65.18265576   2.05821347   0.00000000   0.00000000 270.00000000
-65.08265576   2.05809953   0.00000000   0.00000000 270.00000000
-64.98265576   2.05798472   0.00000000   0.00000000 270.00000000
-64.88265576   2.05786903   0.00000000   0.00000000 270.00000000
-64.78265576   2.05775244   0.00000000   0.00000000 270.00000000
-64.68265576   2.05763497   0.00000000   0.00000000 270.00000000
-64.58265576   2.05751659   0.00000000   0.00000000 270.00000000
-64.48265576   2.05739731   0.00000000   0.00000000 270.00000000
-64.38265576   2.05727712   0.00000000   0.00000000 270.00000000
-64.28265576   2.05715601   0.00000000   0.00000000 270.00000000
-64.18265576   2.05703399   0.00000000   0.00000000 270.00000000
-64.08265576   2.05691103   0.00000000   0.00000000 270.00000000
-63.98265576   2.05678715   0.00000000   0.00000000 270.00000000
-63.88265576   2.05666233   0.00000000   0.00000000 270.00000000
-63.78265576   2.05653656   0.00000000   0.00000000 270.00000000
-63.68265576   2.05640984   0.00000000   0.00000000 270.00000000
-63.58265576   2.05628217   0.00000000   0.00000000 270.00000000
-63.48265576   2.05615354   0.00000000   0.00000000 270.00000000
-63.38265576   2.05602394   0.00000000   0.00000000 270.00000000
-63.28265576   2.05589337   0.00000000   0.00000000 270.00000000
-63.18265576   2.05576183   0.00000000   0.00000000 270.00000000
-63.08265576   2.05562930   0.00000000   0.00000000 270.00000000
-62.98265576   2.05549578   0.00000000   0.00000000 270.00000000
-62.88265576   2.05536127   0.00000000   0.00000000 270.00000000
-62.78265576   2.05522575   0.00000000   0.00000000 270.00000000
-62.68265576   2.05508923   0.00000000   0.00000000 270.00000000
-62.58265576   2.05495170   0.00000000   0.00000000 270.00000000
-62.48265576   2.05481314   0.00000000   0.00000000 270.00000000
-62.38265576   2.05467357   0.00000000   0.00000000 270.00000000
-62.28265576   2.05453296   0.00000000   0.00000000 270.00000000
-62.18265576   2.05439132   0.00000000   0.00000000 270.00000000
-62.08265576   2.05424864   0.00000000   0.00000000 270.00000000
-61.98265576   2.05410491   0.00000000   0.00000000 270.00000000
-61.88265576   2.05396012   0.00000000   0.00000000 270.00000000
-61.78265576   2.05381427   0.00000000   0.00000000 270.00000000
-61.68265576   2.05366736   0.00000000   0.00000000 270.00000000
-61.58265576   2.05351938   0.00000000   0.00000000 270.00000000
-61.48265576   2.05337032   0.00000000   0.00000000 270.00000000
-61.38265576   2.05322017   0.00000000   0.00000000 270.00000000
-61.28265576   2.05306894   0.00000000   0.00000000 270.00000000
-61.18265576   2.05291660   0.00000000   0.00000000 270.00000000
-61.08265576   2.05276317   0.00000000   0.00000000 270.00000000
-60.98265576   2.05260863   0.00000000   0.00000000 270.00000000
-60.88265576   2.05245297   0.00000000   0.00000000 270.00000000
-60.78265576   2.05229619   0.00000000   0.00000000 270.00000000
-60.68265576   2.05213828   0.00000000   0.00000000 270.00000000
-60.58265576   2.05197924   0.00000000   0.00000000 270.00000000
-60.48265576   2.05181906   0.00000000   0.00000000 270.00000000
-60.38265576   2.05165774   0.00000000   0.00000000 270.00000000
-60.28265576   2.05149526   0.00000000   0.00000000 270.00000000
-60.18265576   2.05133162   0.00000000   0.00000000 270.00000000
-60.08265576   2.05116682   0.00000000   0.00000000 270.00000000
-59.98265576   2.05100085   0.00000000   0.00000000 270.00000000
-59.88265576   2.05083370   0.00000000   0.00000000 270.00000000
-59.78265576   2.05066536   0.00000000   0.00000000 270.00000000
-59.68265576   2.05049584   0.00000000   0.00000000 270.00000000
-59.58265576   2.05032512   0.00000000   0.00000000 270.00000000
-59.48265576   2.05015319   0.00000000   0.00000000 270.00000000
-59.38265576   2.04998006   0.00000000   0.00000000 270.00000000
-59.28265576   2.04980571   0.00000000   0.00000000 270.00000000
-59.18265576   2.04963014   0.00000000   0.00000000 270.00000000
-59.08265576   2.04945334   0.00000000   0.00000000 270.00000000
-58.98265576   2.04927530   0.00000000   0.00000000 270.00000000
-58.88265576   2.04909602   0.00000000   0.00000000 270.00000000
-58.78265576   2.04891549   0.00000000   0.00000000 270.00000000
-58.68265576   2.04873371   0.00000000   0.00000000 270.00000000
-58.58265576   2.04855066   0.00000000   0.00000000 270.00000000
-58.48265576   2.04836635   0.00000000   0.00000000 270.00000000
-58.38265576   2.04818076   0.00000000   0.00000000 270.00000000
-58.28265576   2.04799389   0.00000000   0.00000000 270.00000000
-58.18265576   2.04780574   0.00000000   0.00000000 270.00000000
-58.08265576   2.04761629   0.00000000   0.00000000 270.00000000
-57.98265576   2.04742553   0.00000000   0.00000000 270.00000000
-57.88265576   2.04723347   0.00000000   0.00000000 270.00000000
-57.78265576   2.04704009   0.00000000   0.00000000 270.00000000
-57.68265576   2.04684540   0.00000000   0.00000000 270.00000000
-57.58265576   2.04664937   0.00000000   0.00000000 270.00000000
-57.48265576   2.04645201   0.00000000   0.00000000 270.00000000
-57.38265576   2.04625330   0.00000000   0.00000000 270.00000000
-57.28265576   2.04605325   0.00000000   0.00000000 270.00000000
-57.18265576   2.04585185   0.00000000   0.00000000 270.00000000
-57.08265576   2.04564908   0.00000000   0.00000000 270.00000000
-56.98265576   2.04544494   0.00000000   0.00000000 270.00000000
-56.88265576   2.04523943   0.00000000   0.00000000 270.00000000
