# intensity: 0.961881057667714
# background: 1.19249871470331e-08
#           Q (1/A)             dQ (1/A)                    R                   dR               theory              fresnel
  0.0100976740941405  8.9479581888303e-05    0.965405862123547   0.0102637374386372    0.960963787893998    0.862415299892718
  0.0105407405644655 9.25914509055987e-05    0.947539303417396   0.0100907559016562    0.950733342983108    0.384180898555619
  0.0109749650582671 9.56521780732915e-05    0.940726447667846   0.0100311390863223    0.942097004899369    0.211489672642116
  0.0114136096090078 9.87540274335797e-05    0.943196880160382   0.0100146439767608    0.933200070349545    0.142108596653338
  0.0118522550910711 0.000101864976747688    0.927143922545752   0.0099112817796712     0.92302215749293     0.10315180717502
  0.0122908987104893 0.000104984231814592    0.929971594893802  0.00994397220310285    0.910903241838963   0.0783275374878568
  0.0127295413985848 0.000108111056955349    0.911481053038853  0.00975472636838775    0.896190980448223   0.0613431074797565
  0.0131681831553578 0.000111244801404555    0.903875419142294  0.00974313481596232    0.878135294290949   0.0491585611352889
  0.0136068286374211 0.000114384946506908    0.881864959606714  0.00952619266550613    0.855842259981652   0.0401102278326955
  0.0140454713255167 0.000117530930487587    0.860106135399623   0.0093703250032958     0.82825451238732   0.0332098696465885
  0.0144841112196445  0.00012068229785851    0.818651658181809  0.00904447099688934    0.794156436552273   0.0278349920436804
  0.0149271506816149 0.000123870345119265    0.773732069419352  0.00867651929476005     0.75180701871307   0.0235347981524984
  0.0153613947331905 0.000126999660171898    0.706975474841862   0.0081041338650115    0.701372104001913   0.0201433451634245
  0.0158000346273184 0.000130164917685057    0.647539433033302  0.00761512167973735    0.640625597198981   0.0173497565838796
  0.0162386763840914 0.000133334152008395    0.566279842779695  0.00689128770447634    0.570055696677109   0.0150479462874948
  0.0166773162782192 0.000136507065251747    0.484236335710795  0.00624118243672319     0.49102456083335   0.0131332462412357
  0.0171159543097019  0.00013968342890202    0.396957214183256   0.0054860434201914     0.40682343577164   0.0115269700223384
  0.0175590254366398 0.000142895146134346    0.309695783755403  0.00466202570344617    0.321663990897747   0.0101560826497305
  0.0179932322353125 0.000146045583051335    0.239471483217171  0.00400809339223876    0.244225957797945  0.00901238657791117
  0.0184362512081861 0.000149200441998054    0.178618276022526  0.00334804371322293    0.177198497292803  0.00801269184767951
  0.0188705064356327 0.000151837383546581    0.124307715934363  0.00271923713701844    0.127119474161183  0.00716816463316965
  0.0193091444671154 0.000154515954356656    0.099045092890099  0.00241466270254372   0.0934338666651241  0.00642882785888577
  0.0197433866560459 0.000157181810171239   0.0857805403277229  0.00222146639418726   0.0754414506142861  0.00579140053700692
  0.0201908145099878 0.000159942535726632   0.0783219314864082  0.00212390079744471   0.0696899168728696  0.00521745385495069
  0.0206250473856926 0.000162634743027303   0.0808119943773635  0.00216736031217497   0.0728328068947242  0.00472863975737299
   0.021068112924695  0.00016539407954436   0.0894066425074025  0.00227521960728526   0.0814192313961768  0.00428905276140003
  0.0214979443699121 0.000168082453670241    0.097453082634656  0.00239121167788489   0.0921899648341037  0.00391158687496374
  0.0219409484416246 0.000191004284355359    0.104520295990221  0.00184987949665795     0.10357187337028  0.00356963043048842
  0.0228182133287191 0.000198661799083419    0.120914187940497   0.0020000825917118    0.122521297021194  0.00299536125469518
  0.0237042475491762 0.000206363204335391    0.125107770984666  0.00200515516963903    0.132927611111002  0.00252766957103291
  0.0245815049856901 0.000214020614834925    0.127937447833639  0.00201111492601274    0.133515923390473  0.00215261990121561
  0.0254412107169628 0.000221662378611353    0.125372898333125  0.00196419145979181     0.12570522382805  0.00185139103678407
   0.026336008682847 0.000229209050082477    0.109628801870852  0.00178376191777833    0.110841780043385  0.00159262113784327
  0.0272044837474823 0.000236804336344619   0.0908306266404736  0.00157867158254206   0.0922894093929369  0.00138379762317067
  0.0280729588121176 0.000244616190674345   0.0688879412061204  0.00133144198619139   0.0721485470190512  0.00120864633749934
  0.0289677418768406 0.000252054462647654   0.0513862351439608  0.00112015803421801   0.0521377741332857   0.0010565420036737
  0.0298362094908953 0.000259631544039002   0.0347661635872564 0.000900143373202342   0.0352885569130933 0.000931358046498952
  0.0307134445756674 0.000267505025998356   0.0214428045575305 0.000688761981540047   0.0220022729048717 0.000823422075149102
  0.0315994471311569 0.000275007507055525   0.0124354095108194 0.000513871288900191   0.0127628954253301 0.000729962936964695
  0.0324766784906387 0.000282880900860815  0.00649018178275457 0.000325691003969469  0.00744319448913038 0.000650242525397631
  0.0333363525569439 0.000290504180191332  0.00516285783669645 0.000287718155655836  0.00518348300173498 0.000582514649823125
  0.0342135690152645 0.000297818032057839  0.00547481016645729 0.000293199497735326  0.00491798253603504 0.000522347706119585
   0.035099558532238 0.000305644918009346  0.00614042989877098 0.000307923166729283  0.00575006752544684 0.000469305451554394
  0.0359592288732529 0.000313069445225609  0.00732290997190757 0.000334223514665322  0.00683495550239164 0.000424177131614202
  0.0368452034890652 0.000320878175550667  0.00812667382937218 0.000348783035923043  0.00768195662196813 0.000383251393303533
  0.0377136319875717 0.000328581073906534  0.00727661329268102 0.000296142901944146  0.00794612032289016  0.00034784327257615
  0.0385908335447311 0.000336002867458696   0.0071188405441661 0.000290757680201921  0.00756401556934809 0.000316166354663273
  0.0394680202007294 0.000343659224074996  0.00626241476318634 0.000269837975553018  0.00661751020374371 0.000288038385621317
  0.0403539836406708 0.000351377470474167  0.00502546715012472 0.000240581377975932   0.0052820624176891 0.000262751462134148
  0.0412311665713787  0.00035901560842928  0.00377533733367094 0.000205620298735488  0.00381747920917955 0.000240403591102011
  0.0420995689928532 0.000366718065595286  0.00257617757178708 0.000167995370999135  0.00244591186670997 0.000220591039616202
   0.042994286864996 0.000374389693328655  0.00166466190162913 0.000133638079914426   0.0012906025909646  0.00020227795171951
  0.0438714548945427 0.000382027628333341 0.000581164528250056 4.25111267092154e-05 0.000515974865634807 0.000186136004251218
  0.0447310693562031 0.000389667865806786 0.000297145172768154 3.72491005697562e-05 0.000132131571952683 0.000171863746479092
   0.045625776052475 0.000397104779459579 0.000174647432787976 2.86810146622228e-05  8.9132866104634e-05 0.000158437909094489
  0.0464853830635548  0.00040474474218034 0.000436095451457751 4.40402651666991e-05 0.000309721082948147 0.000146755239253165
  0.0473625250160694 0.000412508583519507 0.000743457785767278 5.67291496211074e-05 0.000694983235112896  0.00013593319682014
  0.0482572056353092 0.000420053477089002  0.00124970888884837 7.26853369172263e-05  0.00113957119082883 0.000125904969545519
  0.0491343401372433 0.000427925316059346  0.00146871432116925 7.34279705253528e-05  0.00152885268617809 0.000116956722214958
  0.0499939285218716 0.000435565048943473  0.00186512172838329 8.19180721159338e-05  0.00179745030040913 0.000108951760069836
  0.0508885867893696  0.00044310948943249  0.00197151955834013 8.36812310880473e-05  0.00192093114509704 0.000101337769639575
  0.0517657063901424 0.000450872877656152  0.00190135358188772 8.17730586351444e-05  0.00188259366833434 9.45077464021958e-05
  0.0526252686977386 0.000458061258675598  0.00168571183425643 7.65024264474214e-05  0.00171190063582368 8.83675540261572e-05
  0.0535199157893658 0.000465948211174879  0.00149026748277925 7.12017039977657e-05   0.0014364805292546 8.25000947694911e-05
  0.0543970167636871 0.000473693215129278  0.00101919160786714 5.84124692356597e-05  0.00112132533771752 7.72113816385093e-05
  0.0552565567195415  0.00048111574461652 0.000669532787840451 4.45604930252853e-05 0.000819031860214823 7.24383825161949e-05
  0.0561511851847172 0.000489002440075217 0.000444601694381581 3.62046724616003e-05 0.000555821326300252 6.78563282774457e-05
  0.0570282563567162 0.000496530585160385 0.000353024851904974 3.20721683702409e-05 0.000380036046763196 6.37106929057082e-05
  0.0579053275287151 0.000504184919238651 0.000343469059877111 3.14522326212571e-05 0.000301023200496447  5.9878133062508e-05
  0.0587736181914806 0.000511993789741278 0.000355303701808095 3.17547817215904e-05 0.000316991704123196 5.63647947992347e-05
  0.0596506744623184 0.000519413300788296 0.000424256674475737 3.44222164405478e-05 0.000413147050051821 5.30746340214548e-05
  0.0605277232825756 0.000527049257997479 0.000640951908350017 4.19154669703222e-05  0.00056438987099246  5.0021704335317e-05
  0.0614047646522522 0.000534811381577079  0.00074850495641783 4.28807804564134e-05 0.000740123690356732 4.71859581488716e-05
  0.0622905604541302 0.000542184359463316 0.000980203974195854 4.89542480663111e-05 0.000910979930358981 4.45233628340007e-05
  0.0631675869226456 0.000550054340806343  0.00119740556975887 5.37867072483827e-05  0.00104642364467366 4.20700603433499e-05
  0.0640446022152901 0.000557707885089124  0.00124198883452724 5.42611894131576e-05  0.00112872525609192 3.97839091559946e-05
   0.064912848174572 0.000565064872656561  0.00116130115618497 5.22456193196324e-05  0.00114761944874798 3.76720532888622e-05
  0.0657898560166359 0.000573042800853109  0.00122660396862865  5.3173737861606e-05  0.00110264868142606 3.56797766418128e-05
   0.066666841506958 0.000580587599094682 0.000994472864193412 4.52486529047934e-05  0.00100115199280495 3.38178205707274e-05
  0.0675525963306427 0.000588176279001041 0.000816625585864185 4.08600072060814e-05 0.000855828166511291 3.20591488445251e-05
  0.0684295669198036 0.000595937341635409  0.00067121525807405 3.67279599744794e-05 0.000687896873478946 3.04293294420448e-05
  0.0693065375089646 0.000603463781004103 0.000511650212219263 3.19429497641675e-05 0.000515205809453239 2.89019805933525e-05
  0.0701659619808197 0.000610884285370512 0.000360448071712205 1.88789780763805e-05 0.000358246057269925 2.74974339195486e-05
   0.071051687002182 0.000618706867496738 0.000219385727339013 2.07251767255476e-05 0.000222792816538196 2.61383928976234e-05
  0.0719373971223831  0.00062629482149063 0.000117856008093044  1.5209738621799e-05 0.000122507369206248 2.48623081456336e-05
  0.0728143304586411 0.000634055146794078 4.49113054850439e-05 9.17985176380905e-06 6.06968373346262e-05 2.36748168463028e-05
  0.0736824870109558  0.00064151895552176 3.07564404066535e-05 7.75561229305819e-06 3.38211984628668e-05  2.2568448084248e-05
  0.0745594054460526 0.000649170857294431 5.38385989430198e-05 9.96187627144897e-06 3.47235754269972e-05 2.15159581837654e-05
  0.0754363089799881 0.000657039027866953 9.32270350674954e-05 1.28491421567439e-05 5.45492411772644e-05 2.05242580602147e-05
  0.0763132125139236 0.000664456104924097 0.000119982112965491 1.44355546618365e-05 8.31737903723138e-05  1.9589151090787e-05
   0.077190101146698 0.000672215696811266 0.000163327722784256 1.67149968226212e-05 0.000111219744947353 1.87068432232384e-05
  0.0780669748783112  0.00067997516300877  0.00014527695569122  1.4992190515263e-05 0.000131351303835229 1.78737815113253e-05
  0.0789438486099243 0.000687283566219743 0.000169335929526408 1.61216227464558e-05 0.000139120372291518 1.70866680912648e-05
  0.0798207074403763 0.000695042709469325 0.000138663443420514 1.45462131896124e-05 0.000133227590737718 1.63425430722212e-05
  0.0806975588202477 0.000702675487125768 0.000132969960064797 1.41496452801634e-05 0.000115323112271785 1.56385617342043e-05
  0.0815744027495384 0.000710217888155635 0.000109289240616146 1.28058043625206e-05 8.93235871483518e-05 1.49722030598372e-05
  0.0824424624443054 0.000718022859448104 7.29167838547968e-05 1.04800102558354e-05 6.07827768295688e-05 1.43472066209498e-05
  0.0833280608057976 0.000725608756498315  5.8312007514453e-05 9.35476391403681e-06 3.43894901815941e-05 1.37428946964423e-05
  0.0842048674821853 0.000733132690026783 2.18217526345986e-05  5.7497125065106e-06 1.58688423513452e-05 1.31756507200087e-05
   0.085081659257412 0.000740890848541591 2.45200197559309e-05 5.98955582130072e-06 8.36409854537966e-06 1.26374601492663e-05
  0.0859584584832191  0.00074830625275446  2.0693403475739e-05 5.51141492119189e-06 1.33650626742478e-05 1.21265212322552e-05
  0.0868352353572846 0.000756064017056439 3.36201568765498e-05 6.82020029846808e-06 3.03330931862482e-05 1.16412199549871e-05
  0.0877032354474068 0.000763759744406773 5.59028662017444e-05 8.58062637711205e-06 5.65882450964623e-05 1.11845297169266e-05
  0.0885887667536736 0.000771236534022363 9.23531590645298e-05 1.08794277735157e-05  8.9290253589573e-05 1.07415073662385e-05
   0.089465506374836 0.000779101959610352 0.000120440176256703 1.18809604896186e-05 0.000123074698061486 1.03243282238923e-05
  0.0903422459959984  0.00078653452335277 0.000160524430056844 1.36511702569059e-05 0.000153786170174332 9.92724843450327e-06
  0.0912189707159996 0.000794165225219649 0.000184129470119455 1.45641764899068e-05 0.000177604466856761 9.54913484646152e-06
  0.0920956805348396 0.000801921955857266  0.00018965677773621 1.47001145666716e-05 0.000191861746714328 9.18890303976666e-06
  0.0929723829030991 0.000809335964945284 0.000192116972154004 1.47713018357375e-05 0.000195349094962337 8.84553564459109e-06
  0.0938490852713585 0.000817092341801329 0.000180171997533516  1.4247637579424e-05 0.000188361713617375 8.51810108096423e-06
  0.0947169959545135 0.000824894831115157 0.000183021588680311  1.4310055270626e-05 0.000172755455912861 8.20878567087904e-06
  0.0956024304032326  0.00083226196564342  0.00016933801536594  1.3258957386061e-05 0.000150644661966636 7.90758786628308e-06
  0.0964790880680084 0.000840125931447624 0.000114120761497847 1.09190583508269e-05 0.000125863999051393 7.62289605239155e-06
  0.0973557382822037 0.000847538979842817 9.80866743429485e-05 1.00927391580315e-05 0.000101543729484106 7.35093217513923e-06
  0.0982323735952377 0.000855186202777148 7.99311756103345e-05 9.12105865679511e-06 8.06143394560667e-05 7.09103266412732e-06
  0.0991089940071106  0.00086294138416519 5.92693680935958e-05 7.84828988248073e-06 6.52418417855603e-05 6.84255489455383e-06
  0.0999943614006042 0.000870523908020313  5.1990573640712e-05 7.34087270116221e-06  5.6538483081908e-05 6.60257292400589e-06
   0.100870959460735  0.00087827872265049 5.60879991771165e-05  7.3490429125113e-06  5.4781850130445e-05 6.37527076902115e-06
   0.101747542619705 0.000885925126582908 4.37232508765354e-05  6.4924014372383e-06 5.89711297263422e-05 6.15769639847298e-06
   0.102624125778675 0.000893337069650917 6.08220218437046e-05 7.58449646151373e-06 6.74627966636922e-05 5.94935035846336e-06
   0.103500671684742 0.000901091185062511  7.1629087841264e-05 8.15153945359985e-06 7.81534200399672e-05 5.74977314984327e-06
   0.104368470609188 0.000908765396030782 7.40467669361996e-05 8.27000730088405e-06 8.87144614148425e-05 5.56038895389279e-06
   0.105245001614094 0.000916302845745748  9.4703152563796e-05 9.28706575460304e-06 9.73454179050098e-05 5.37697562713493e-06
   0.106112755835056 0.000923994541355459 8.19531937988715e-05 8.59772463327082e-06 0.000102332913429174 5.20281108801693e-06
   0.106998033821583 0.000931467319686103 9.22598028564594e-05 8.77340288023936e-06 0.000102830499442776 5.03236134031252e-06
   0.107874527573586 0.000939094247716413 8.50499895496292e-05  8.4026448189769e-06 9.85153423270863e-05 4.87044337558361e-06
   0.108751013875008 0.000946847191948962 9.19354376425556e-05  8.7178986016174e-06   8.983951043396e-05 4.71501711203251e-06
   0.109627477824688 0.000954257458616313 6.09554089119924e-05 7.12511225233276e-06 7.77877629869327e-05  4.5657545604131e-06
   0.110503941774368 0.000962009909158144 6.58174227430142e-05 7.36346486114459e-06 6.36754576040263e-05 4.42237443563401e-06
   0.111380375921726 0.000969870267870028 5.35579492332509e-05 6.65669164982133e-06 4.89634419522665e-05  4.2846030149234e-06
   0.112256810069084 0.000977171752561482 3.28690729363148e-05 5.28923044088448e-06 3.50306925074058e-05 4.15217030758151e-06
     0.1131332218647 0.000985031633275649 1.87380830357203e-05 4.13129908580459e-06 2.30033269125947e-05  4.0248396337589e-06
   0.114009626209736 0.000992566957355168 1.57250985989185e-05  3.6734132953177e-06 1.36236502670294e-05 3.90236938136783e-06
    0.11488601565361  0.00100008411794604 7.30427982594408e-06  2.7151555353097e-06 7.20342344988599e-06 3.78454083700545e-06
   0.115762390196323  0.00100783523112402 8.02776743157335e-06 2.77349027781904e-06 3.63512023083183e-06 3.67114630185561e-06
   0.116629995405674  0.00101529005770339 3.13658091869862e-06 2.02458325011341e-06 2.46470899616451e-06 3.56305545308421e-06
   0.117515094578266  0.00102299442480081 5.96581174413439e-06 2.43631733561758e-06 3.00065214843085e-06 3.45687066396727e-06
   0.118391431868076  0.00103074481945554 5.96450276637598e-06 2.40731404346335e-06 4.46679668564252e-06  3.3556205327867e-06
   0.119267746806145  0.00103826075563231 1.90786280747528e-06 1.71271626656519e-06 6.11962748280455e-06 3.25806674630807e-06
   0.120144046843052  0.00104601066863268 4.67843742085898e-06 2.17806904325899e-06 7.36933916804274e-06 3.16405035617483e-06
   0.121020339429379  0.00105352610020678 3.37169477605743e-06 1.95019678310511e-06 7.85362499849322e-06 3.07341566408912e-06
   0.121896602213383  0.00106116749245039 4.10426466311231e-06 2.06403008841217e-06 7.46826690238839e-06 2.98602044858565e-06
   0.122772864997387  0.00106902477389488 1.01007127662568e-05 2.86244812821596e-06 6.35470566710727e-06 2.90172490619509e-06
   0.123649097979069  0.00107621527228803 7.21579970157679e-06 2.34183054139767e-06 4.84793034359489e-06 2.82039689789503e-06
   0.124525330960751   0.0010840720213535 4.74361055303844e-06 1.99573761750304e-06 3.39621314136954e-06 2.74191432777741e-06
   0.125401541590691  0.00109171234984514 5.81084431050273e-06 2.13938022288213e-06 2.47105698602544e-06 2.66615707055946e-06
   0.126277759671211  0.00109911839188907 7.49181371518725e-06 2.35804633439767e-06 2.47777556496839e-06 2.59300974378078e-06
   0.127153947949409  0.00110697443075723 6.75272738439492e-06 2.25882811351574e-06 3.68578477341937e-06 2.52237044551467e-06
   0.128030106425285  0.00111472212430907 1.35003931943079e-05 2.99390484980478e-06 6.17949685044605e-06 2.45413469515784e-06
          0.12890625   0.0011220191982954 1.39572933772924e-05 3.03990365068674e-06 9.84744481736466e-06 2.38820272213418e-06
   0.129782378673553  0.00112987441465443 1.99503309389559e-05 3.54794321868724e-06 1.44017501155855e-05 2.32448488277705e-06
   0.130658507347107  0.00113738715889607 2.77030443319839e-05 4.12210091054756e-06 1.94186694967852e-05 2.26288871873332e-06
   0.131534621119499  0.00114502583710643 3.66979148601088e-05 4.70722021587896e-06 2.44056458697948e-05  2.2033323287735e-06
   0.132410690188408  0.00115275413652157 3.19439735162095e-05 4.38526257415631e-06 2.88705499155896e-05 2.14573693832804e-06
   0.133286759257317  0.00116017608763048 3.83156575770588e-05 4.74275084534106e-06 3.23914929702608e-05 2.09002160927464e-06
   0.134162828326225  0.00116779588434973 4.63157468337901e-05  4.9870738721975e-06 3.46687654607794e-05   2.036113822243e-06
    0.13503885269165  0.00117543342882649 4.75821572630124e-05 5.03051214347487e-06 3.55621212549714e-05 1.98394765617408e-06
