#      z (A) rho (1e-6/A2) irho (1e-6/A2) rhoM (1e-6/A2) theta (degrees)
-148.10095769   2.14044238   0.00000000   0.00000000 270.00000000
-148.00095769   2.14043814   0.00000000   0.00000000 270.00000000
-147.90095769   2.14043388   0.00000000   0.00000000 270.00000000
-147.80095769   2.14042959   0.00000000   0.00000000 270.00000000
-147.70095769   2.14042527   0.00000000   0.00000000 270.00000000
-147.60095769   2.14042093   0.00000000   0.00000000 270.00000000
-147.50095769   2.14041656   0.00000000   0.00000000 270.00000000
-147.40095769   2.14041217   0.00000000   0.00000000 270.00000000
-147.30095769   2.14040775   0.00000000   0.00000000 270.00000000
-147.20095769   2.14040330   0.00000000   0.00000000 270.00000000
-147.10095769   2.14039882   0.00000000   0.00000000 270.00000000
-147.00095769   2.14039432   0.00000000   0.00000000 270.00000000
-146.90095769   2.14038979   0.00000000   0.00000000 270.00000000
-146.80095769   2.14038523   0.00000000   0.00000000 270.00000000
-146.70095769   2.14038065   0.00000000   0.00000000 270.00000000
-146.60095769   2.14037603   0.00000000   0.00000000 270.00000000
-146.50095769   2.14037139   0.00000000   0.00000000 270.00000000
-146.40095769   2.14036673   0.00000000   0.00000000 270.00000000
-146.30095769   2.14036203   0.00000000   0.00000000 270.00000000
-146.20095769   2.14035730   0.00000000   0.00000000 270.00000000
-146.10095769   2.14035255   0.00000000   0.00000000 270.00000000
-146.00095769   2.14034777   0.00000000   0.00000000 270.00000000
-145.90095769   2.14034296   0.00000000   0.00000000 270.00000000
-145.80095769   2.14033812   0.00000000   0.00000000 270.00000000
-145.70095769   2.14033325   0.00000000   0.00000000 270.00000000
-145.60095769   2.14032835   0.00000000   0.00000000 270.00000000
-145.50095769   2.14032343   0.00000000   0.00000000 270.00000000
-145.40095769   2.14031847   0.00000000   0.00000000 270.00000000
-145.30095769   2.14031348   0.00000000   0.00000000 270.00000000
-145.20095769   2.14030847   0.00000000   0.00000000 270.00000000
-145.10095769   2.14030342   0.00000000   0.00000000 270.00000000
-145.00095769   2.14029834   0.00000000   0.00000000 270.00000000
-144.90095769   2.14029324   0.00000000   0.00000000 270.00000000
-144.80095769   2.14028810   0.00000000   0.00000000 270.00000000
-144.70095769   2.14028293   0.00000000   0.00000000 270.00000000
-144.60095769   2.14027774   0.00000000   0.00000000 270.00000000
-144.50095769   2.14027251   0.00000000   0.00000000 270.00000000
-144.40095769   2.14026725   0.00000000   0.00000000 270.00000000
-144.30095769   2.14026196   0.00000000   0.00000000 270.00000000
-144.20095769   2.14025663   0.00000000   0.00000000 270.00000000
-144.10095769   2.14025128   0.00000000   0.00000000 270.00000000
-144.00095769   2.14024589   0.00000000   0.00000000 270.00000000
-143.90095769   2.14024047   0.00000000   0.00000000 270.00000000
-143.80095769   2.14023502   0.00000000   0.00000000 270.00000000
-143.70095769   2.14022954   0.00000000   0.00000000 270.00000000
-143.60095769   2.14022403   0.00000000   0.00000000 270.00000000
-143.50095769   2.14021848   0.00000000   0.00000000 270.00000000
-143.40095769   2.14021290   0.00000000   0.00000000 270.00000000
-143.30095769   2.14020728   0.00000000   0.00000000 270.00000000
-143.20095769   2.14020164   0.00000000   0.00000000 270.00000000
-143.10095769   2.14019596   0.00000000   0.00000000 270.00000000
-143.00095769   2.14019025   0.00000000   0.00000000 270.00000000
-142.90095769   2.14018450   0.00000000   0.00000000 270.00000000
-142.80095769   2.14017872   0.00000000   0.00000000 270.00000000
-142.70095769   2.14017290   0.00000000   0.00000000 270.00000000
-142.60095769   2.14016705   0.00000000   0.00000000 270.00000000
-142.50095769   2.14016117   0.00000000   0.00000000 270.00000000
-142.40095769   2.14015525   0.00000000   0.00000000 270.00000000
-142.30095769   2.14014930   0.00000000   0.00000000 270.00000000
-142.20095769   2.14014332   0.00000000   0.00000000 270.00000000
-142.10095769   2.14013729   0.00000000   0.00000000 270.00000000
-142.00095769   2.14013124   0.00000000   0.00000000 270.00000000
-141.90095769   2.14012514   0.00000000   0.00000000 270.00000000
-141.80095769   2.14011902   0.00000000   0.00000000 270.00000000
-141.70095769   2.14011285   0.00000000   0.00000000 270.00000000
-141.60095769   2.14010665   0.00000000   0.00000000 270.00000000
-141.50095769   2.14010042   0.00000000   0.00000000 270.00000000
-141.40095769   2.14009414   0.00000000   0.00000000 270.00000000
-141.30095769   2.14008783   0.00000000   0.00000000 270.00000000
-141.20095769   2.14008149   0.00000000   0.00000000 270.00000000
-141.10095769   2.14007511   0.00000000   0.00000000 270.00000000
-141.00095769   2.14006869   0.00000000   0.00000000 270.00000000
-140.90095769   2.14006223   0.00000000   0.00000000 270.00000000
-140.80095769   2.14005574   0.00000000   0.00000000 270.00000000
-140.70095769   2.14004920   0.00000000   0.00000000 270.00000000
-140.60095769   2.14004263   0.00000000   0.00000000 270.00000000
-140.50095769   2.14003603   0.00000000   0.00000000 270.00000000
-140.40095769   2.14002938   0.00000000   0.00000000 270.00000000
-140.30095769   2.14002270   0.00000000   0.00000000 270.00000000
-140.20095769   2.14001597   0.00000000   0.00000000 270.00000000
-140.10095769   2.14000921   0.00000000   0.00000000 270.00000000
-140.00095769   2.14000241   0.00000000   0.00000000 270.00000000
-139.90095769   2.13999557   0.00000000   0.00000000 270.00000000
-139.80095769   2.13998869   0.00000000   0.00000000 270.00000000
-139.70095769   2.13998177   0.00000000   0.00000000 270.00000000
-139.60095769   2.13997482   0.00000000   0.00000000 270.00000000
-139.50095769   2.13996782   0.00000000   0.00000000 270.00000000
-139.40095769   2.13996078   0.00000000   0.00000000 270.00000000
-139.30095769   2.13995370   0.00000000   0.00000000 270.00000000
-139.20095769   2.13994658   0.00000000   0.00000000 270.00000000
-139.10095769   2.13993942   0.00000000   0.00000000 270.00000000
-139.00095769   2.13993222   0.00000000   0.00000000 270.00000000
-138.90095769   2.13992498   0.00000000   0.00000000 270.00000000
-138.80095769   2.13991769   0.00000000   0.00000000 270.00000000
-138.70095769   2.13991037   0.00000000   0.00000000 270.00000000
-138.60095769   2.13990300   0.00000000   0.00000000 270.00000000
-138.50095769   2.13989559   0.00000000   0.00000000 270.00000000
-138.40095769   2.13988814   0.00000000   0.00000000 270.00000000
-138.30095769   2.13988065   0.00000000   0.00000000 270.00000000
-138.20095769   2.13987311   0.00000000   0.00000000 270.00000000
-138.10095769   2.13986553   0.00000000   0.00000000 270.00000000
-138.00095769   2.13985791   0.00000000   0.00000000 270.00000000
-137.90095769   2.13985024   0.00000000   0.00000000 270.00000000
-137.80095769   2.13984253   0.00000000   0.00000000 270.00000000
-137.70095769   2.13983478   0.00000000   0.00000000 270.00000000
-137.60095769   2.13982698   0.00000000   0.00000000 270.00000000
-137.50095769   2.13981914   0.00000000   0.00000000 270.00000000
-137.40095769   2.13981125   0.00000000   0.00000000 270.00000000
-137.30095769   2.13980332   0.00000000   0.00000000 270.00000000
-137.20095769   2.13979535   0.00000000   0.00000000 270.00000000
-137.10095769   2.13978733   0.00000000   0.00000000 270.00000000
-137.00095769   2.13977926   0.00000000   0.00000000 270.00000000
-136.90095769   2.13977115   0.00000000   0.00000000 270.00000000
-136.80095769   2.13976300   0.00000000   0.00000000 270.00000000
-136.70095769   2.13975480   0.00000000   0.00000000 270.00000000
-136.60095769   2.13974655   0.00000000   0.00000000 270.00000000
-136.50095769   2.13973825   0.00000000   0.00000000 270.00000000
-136.40095769   2.13972991   0.00000000   0.00000000 270.00000000
-136.30095769   2.13972152   0.00000000   0.00000000 270.00000000
-136.20095769   2.13971309   0.00000000   0.00000000 270.00000000
-136.10095769   2.13970460   0.00000000   0.00000000 270.00000000
-136.00095769   2.13969607   0.00000000   0.00000000 270.00000000
-135.90095769   2.13968750   0.00000000   0.00000000 270.00000000
-135.80095769   2.13967887   0.00000000   0.00000000 270.00000000
-135.70095769   2.13967020   0.00000000   0.00000000 270.00000000
-135.60095769   2.13966148   0.00000000   0.00000000 270.00000000
-135.50095769   2.13965270   0.00000000   0.00000000 270.00000000
-135.40095769   2.13964388   0.00000000   0.00000000 270.00000000
-135.30095769   2.13963502   0.00000000   0.00000000 270.00000000
-135.20095769   2.13962610   0.00000000   0.00000000 270.00000000
-135.10095769   2.13961713   0.00000000   0.00000000 270.00000000
-135.00095769   2.13960811   0.00000000   0.00000000 270.00000000
-134.90095769   2.13959904   0.00000000   0.00000000 270.00000000
-134.80095769   2.13958993   0.00000000   0.00000000 270.00000000
-134.70095769   2.13958076   0.00000000   0.00000000 270.00000000
-134.60095769   2.13957154   0.00000000   0.00000000 270.00000000
-134.50095769   2.13956227   0.00000000   0.00000000 270.00000000
-134.40095769   2.13955294   0.00000000   0.00000000 270.00000000
-134.30095769   2.13954357   0.00000000   0.00000000 270.00000000
-134.20095769   2.13953414   0.00000000   0.00000000 270.00000000
-134.10095769   2.13952467   0.00000000   0.00000000 270.00000000
-134.00095769   2.13951514   0.00000000   0.00000000 270.00000000
-133.90095769   2.13950556   0.00000000   0.00000000 270.00000000
-133.80095769   2.13949592   0.00000000   0.00000000 270.00000000
-133.70095769   2.13948623   0.00000000   0.00000000 270.00000000
-133.60095769   2.13947649   0.00000000   0.00000000 270.00000000
-133.50095769   2.13946670   0.00000000   0.00000000 270.00000000
-133.40095769   2.13945685   0.00000000   0.00000000 270.00000000
-133.30095769   2.13944694   0.00000000   0.00000000 270.00000000
-133.20095769   2.13943699   0.00000000   0.00000000 270.00000000
-133.10095769   2.13942698   0.00000000   0.00000000 270.00000000
-133.00095769   2.13941691   0.00000000   0.00000000 270.00000000
-132.90095769   2.13940679   0.00000000   0.00000000 270.00000000
-132.80095769   2.13939661   0.00000000   0.00000000 270.00000000
-132.70095769   2.13938638   0.00000000   0.00000000 270.00000000
-132.60095769   2.13937609   0.00000000   0.00000000 270.00000000
-132.50095769   2.13936575   0.00000000   0.00000000 270.00000000
-132.40095769   2.13935534   0.00000000   0.00000000 270.00000000
-132.30095769   2.13934489   0.00000000   0.00000000 270.00000000
-132.20095769   2.13933437   0.00000000   0.00000000 270.00000000
-132.10095769   2.13932380   0.00000000   0.00000000 270.00000000
-132.00095769   2.13931317   0.00000000   0.00000000 270.00000000
-131.90095769   2.13930248   0.00000000   0.00000000 270.00000000
-131.80095769   2.13929174   0.00000000   0.00000000 270.00000000
-131.70095769   2.13928094   0.00000000   0.00000000 270.00000000
-131.60095769   2.13927007   0.00000000   0.00000000 270.00000000
-131.50095769   2.13925915   0.00000000   0.00000000 270.00000000
-131.40095769   2.13924817   0.00000000   0.00000000 270.00000000
-131.30095769   2.13923714   0.00000000   0.00000000 270.00000000
-131.20095769   2.13922604   0.00000000   0.00000000 270.00000000
-131.10095769   2.13921488   0.00000000   0.00000000 270.00000000
-131.00095769   2.13920366   0.00000000   0.00000000 270.00000000
-130.90095769   2.13919238   0.00000000   0.00000000 270.00000000
-130.80095769   2.13918104   0.00000000   0.00000000 270.00000000
-130.70095769   2.13916964   0.00000000   0.00000000 270.00000000
-130.60095769   2.13915818   0.00000000   0.00000000 270.00000000
-130.50095769   2.13914665   0.00000000   0.00000000 270.00000000
-130.40095769   2.13913507   0.00000000   0.00000000 270.00000000
-130.30095769   2.13912342   0.00000000   0.00000000 270.00000000
-130.20095769   2.13911171   0.00000000   0.00000000 270.00000000
-130.10095769   2.13909994   0.00000000   0.00000000 270.00000000
-130.00095769   2.13908810   0.00000000   0.00000000 270.00000000
-129.90095769   2.13907620   0.00000000   0.00000000 270.00000000
-129.80095769   2.13906424   0.00000000   0.00000000 270.00000000
-129.70095769   2.13905221   0.00000000   0.00000000 270.00000000
-129.60095769   2.13904012   0.00000000   0.00000000 270.00000000
-129.50095769   2.13902797   0.00000000   0.00000000 270.00000000
-129.40095769   2.13901575   0.00000000   0.00000000 270.00000000
-129.30095769   2.13900346   0.00000000   0.00000000 270.00000000
-129.20095769   2.13899111   0.00000000   0.00000000 270.00000000
-129.10095769   2.13897869   0.00000000   0.00000000 270.00000000
-129.00095769   2.13896621   0.00000000   0.00000000 270.00000000
-128.90095769   2.13895366   0.00000000   0.00000000 270.00000000
-128.80095769   2.13894105   0.00000000   0.00000000 270.00000000
-128.70095769   2.13892837   0.00000000   0.00000000 270.00000000
-128.60095769   2.13891562   0.00000000   0.00000000 270.00000000
-128.50095769   2.13890280   0.00000000   0.00000000 270.00000000
-128.40095769   2.13888992   0.00000000   0.00000000 270.00000000
-128.30095769   2.13887696   0.00000000   0.00000000 270.00000000
-128.20095769   2.13886394   0.00000000   0.00000000 270.00000000
-128.10095769   2.13885085   0.00000000   0.00000000 270.00000000
-128.00095769   2.13883769   0.00000000   0.00000000 270.00000000
-127.90095769   2.13882447   0.00000000   0.00000000 270.00000000
-127.80095769   2.13881117   0.00000000   0.00000000 270.00000000
-127.70095769   2.13879780   0.00000000   0.00000000 270.00000000
-127.60095769   2.13878437   0.00000000   0.00000000 270.00000000
-127.50095769   2.13877086   0.00000000   0.00000000 270.00000000
-127.40095769   2.13875728   0.00000000   0.00000000 270.00000000
-127.30095769   2.13874363   0.00000000   0.00000000 270.00000000
-127.20095769   2.13872991   0.00000000   0.00000000 270.00000000
-127.10095769   2.13871611   0.00000000   0.00000000 270.00000000
-127.00095769   2.13870225   0.00000000   0.00000000 270.00000000
-126.90095769   2.13868831   0.00000000   0.00000000 270.00000000
-126.80095769   2.13867430   0.00000000   0.00000000 270.00000000
-126.70095769   2.13866022   0.00000000   0.00000000 270.00000000
-126.60095769   2.13864606   0.00000000   0.00000000 270.00000000
-126.50095769   2.13863183   0.00000000   0.00000000 270.00000000
-126.40095769   2.13861752   0.00000000   0.00000000 270.00000000
-126.30095769   2.13860315   0.00000000   0.00000000 270.00000000
-126.20095769   2.13858869   0.00000000   0.00000000 270.00000000
-126.10095769   2.13857416   0.00000000   0.00000000 270.00000000
-126.00095769   2.13855956   0.00000000   0.00000000 270.00000000
-125.90095769   2.13854488   0.00000000   0.00000000 270.00000000
-125.80095769   2.13853012   0.00000000   0.00000000 270.00000000
-125.70095769   2.13851529   0.00000000   0.00000000 270.00000000
-125.60095769   2.13850038   0.00000000   0.00000000 270.00000000
-125.50095769   2.13848539   0.00000000   0.00000000 270.00000000
-125.40095769   2.13847033   0.00000000   0.00000000 270.00000000
-125.30095769   2.13845519   0.00000000   0.00000000 270.00000000
-125.20095769   2.13843997   0.00000000   0.00000000 270.00000000
-125.10095769   2.13842467   0.00000000   0.00000000 270.00000000
-125.00095769   2.13840930   0.00000000   0.00000000 270.00000000
-124.90095769   2.13839384   0.00000000   0.00000000 270.00000000
-124.80095769   2.13837831   0.00000000   0.00000000 270.00000000
-124.70095769   2.13836269   0.00000000   0.00000000 270.00000000
-124.60095769   2.13834700   0.00000000   0.00000000 270.00000000
-124.50095769   2.13833122   0.00000000   0.00000000 270.00000000
-124.40095769   2.13831536   0.00000000   0.00000000 270.00000000
-124.30095769   2.13829943   0.00000000   0.00000000 270.00000000
-124.20095769   2.13828341   0.00000000   0.00000000 270.00000000
-124.10095769   2.13826731   0.00000000   0.00000000 270.00000000
-124.00095769   2.13825113   0.00000000   0.00000000 270.00000000
-123.90095769   2.13823486   0.00000000   0.00000000 270.00000000
-123.80095769   2.13821851   0.00000000   0.00000000 270.00000000
-123.70095769   2.13820208   0.00000000   0.00000000 270.00000000
-123.60095769   2.13818557   0.00000000   0.00000000 270.00000000
-123.50095769   2.13816897   0.00000000   0.00000000 270.00000000
-123.40095769   2.13815228   0.00000000   0.00000000 270.00000000
-123.30095769   2.13813552   0.00000000   0.00000000 270.00000000
-123.20095769   2.13811866   0.00000000   0.00000000 270.00000000
-123.10095769   2.13810172   0.00000000   0.00000000 270.00000000
-123.00095769   2.13808470   0.00000000   0.00000000 270.00000000
-122.90095769   2.13806759   0.00000000   0.00000000 270.00000000
-122.80095769   2.13805039   0.00000000   0.00000000 270.00000000
-122.70095769   2.13803311   0.00000000   0.00000000 270.00000000
-122.60095769   2.13801574   0.00000000   0.00000000 270.00000000
-122.50095769   2.13799828   0.00000000   0.00000000 270.00000000
-122.40095769   2.13798073   0.00000000   0.00000000 270.00000000
-122.30095769   2.13796310   0.00000000   0.00000000 270.00000000
-122.20095769   2.13794537   0.00000000   0.00000000 270.00000000
-122.10095769   2.13792756   0.00000000   0.00000000 270.00000000
-122.00095769   2.13790966   0.00000000   0.00000000 270.00000000
-121.90095769   2.13789167   0.00000000   0.00000000 270.00000000
-121.80095769   2.13787359   0.00000000   0.00000000 270.00000000
-121.70095769   2.13785541   0.00000000   0.00000000 270.00000000
-121.60095769   2.13783715   0.00000000   0.00000000 270.00000000
-121.50095769   2.13781879   0.00000000   0.00000000 270.00000000
-121.40095769   2.13780035   0.00000000   0.00000000 270.00000000
-121.30095769   2.13778181   0.00000000   0.00000000 270.00000000
-121.20095769   2.13776318   0.00000000   0.00000000 270.00000000
-121.10095769   2.13774445   0.00000000   0.00000000 270.00000000
-121.00095769   2.13772563   0.00000000   0.00000000 270.00000000
-120.90095769   2.13770672   0.00000000   0.00000000 270.00000000
-120.80095769   2.13768772   0.00000000   0.00000000 270.00000000
-120.70095769   2.13766862   0.00000000   0.00000000 270.00000000
-120.60095769   2.13764942   0.00000000   0.00000000 270.00000000
-120.50095769   2.13763013   0.00000000   0.00000000 270.00000000
-120.40095769   2.13761075   0.00000000   0.00000000 270.00000000
-120.30095769   2.13759127   0.00000000   0.00000000 270.00000000
-120.20095769   2.13757169   0.00000000   0.00000000 270.00000000
-120.10095769   2.13755201   0.00000000   0.00000000 270.00000000
-120.00095769   2.13753224   0.00000000   0.00000000 270.00000000
-119.90095769   2.13751237   0.00000000   0.00000000 270.00000000
-119.80095769   2.13749240   0.00000000   0.00000000 270.00000000
-119.70095769   2.13747234   0.00000000   0.00000000 270.00000000
-119.60095769   2.13745217   0.00000000   0.00000000 270.00000000
-119.50095769   2.13743191   0.00000000   0.00000000 270.00000000
-119.40095769   2.13741155   0.00000000   0.00000000 270.00000000
-119.30095769   2.13739108   0.00000000   0.00000000 270.00000000
-119.20095769   2.13737052   0.00000000   0.00000000 270.00000000
-119.10095769   2.13734985   0.00000000   0.00000000 270.00000000
-119.00095769   2.13732909   0.00000000   0.00000000 270.00000000
-118.90095769   2.13730822   0.00000000   0.00000000 270.00000000
-118.80095769   2.13728725   0.00000000   0.00000000 270.00000000
-118.70095769   2.13726618   0.00000000   0.00000000 270.00000000
-118.60095769   2.13724500   0.00000000   0.00000000 270.00000000
-118.50095769   2.13722372   0.00000000   0.00000000 270.00000000
-118.40095769   2.13720234   0.00000000   0.00000000 270.00000000
-118.30095769   2.13718086   0.00000000   0.00000000 270.00000000
-118.20095769   2.13715927   0.00000000   0.00000000 270.00000000
-118.10095769   2.13713757   0.00000000   0.00000000 270.00000000
