# intensity: 1.08672272086204
# background: 2.66421781097223e-08
#           Q (1/A)             dQ (1/A)                    R                   dR               theory              fresnel
     0.0483642315116 0.000750702739851845       0.951434579138     0.00501003519873    0.927820823846839   0.0200976507684129
     0.0497866914682 0.000750709007438337        0.94044560157     0.00496697431537    0.922190197169498   0.0183568784192703
     0.0512091499082 0.000750715456630211        0.92483593417     0.00490572657895    0.912655631608241   0.0159641410340562
     0.0526316067882    0.000750722087422        0.91507948482      0.0048673956524    0.901548399008371    0.013891491673416
      0.054054062065 0.000750728899808085       0.891642996968     0.00477516962074    0.888835793689875   0.0121587615046585
     0.0554765156953 0.000750735893782693       0.876236096925     0.00471441470647    0.874047920299764   0.0106986339608507
     0.0568989676356 0.000750743069339895       0.854327123245     0.00462784251127    0.856558739482023  0.00945937364391092
     0.0583214178427 0.000750750426473612       0.832076973197     0.00453970038522    0.835550185362175  0.00840071494116764
     0.0597438662732 0.000750757965177608       0.797485049287     0.00440218205643    0.809998950558901  0.00749096331910536
     0.0611663128838 0.000750765685445495       0.755120376229     0.00423288370811    0.778737458468198  0.00670491574717634
     0.0625887576312 0.000750773587270732       0.713350487453     0.00406490300013    0.740687169403796  0.00602234542419865
      0.064011200472 0.000750781670646622       0.660982624188     0.00385260415179    0.695395130025237  0.00542688215060395
     0.0654336413629 0.000750789935566318       0.611077559878     0.00364824562759    0.643911032704525  0.00490517451868419
     0.0668560802606 0.000750798382022817        0.56406531003     0.00345358980774    0.589651008621471  0.00444625573439963
     0.0682785171218 0.000750807010008963       0.524906916272     0.00328959354811    0.538317698488638  0.00404105850329762
      0.069700951903 0.000750815819517446       0.497644208161     0.00317426832942    0.496051068356652  0.00368204034194364
     0.0711233845611 0.000750824810540804        0.47861385523      0.0030931423649    0.466551086174933  0.00336289158999649
     0.0725458150526  0.00075083398307142       0.474897210464      0.0030772339742    0.449450886093269  0.00307830598667379
     0.0739682433342 0.000750843337101525       0.465759918032     0.00303803317951    0.441210467790479   0.0028237990203066
     0.0753906693627 0.000750852872623196       0.468748114267     0.00305086561273    0.437340414942979  0.00259556307445564
     0.0768130930946 0.000750862589628355       0.459408054463     0.00301070035281    0.434108927943228  0.00239035114481824
     0.0782355144866 0.000750872488108774       0.451730687084     0.00297757578127    0.429107859755325   0.0022053829074093
     0.0796579334955  0.00075088256805607        0.44262088991     0.00293813751632    0.421084490187216  0.00203826839632869
     0.0810803500778 0.000750892829461706       0.427630839031     0.00287291585697    0.409566631491755  0.00188694564709154
     0.0825027641903 0.000750903272316994       0.407801406942     0.00278596845389    0.394546367259721  0.00174962948454528
     0.0839251757896 0.000750913896613089        0.38491694649     0.00268458712938    0.376280300127364  0.00162476925680192
     0.0853475848324 0.000750924702340998        0.36495233615     0.00259513435406    0.355182694571303  0.00151101378981712
     0.0867699912754  0.00075093568949157       0.339069270754     0.00247758842129    0.331774535491632  0.00140718220086236
     0.0881923950752 0.000750946858055505       0.315984395044     0.00237105595035    0.306659249586295  0.00131223948946488
     0.0896147961885 0.000750958208023346        0.29176402206     0.00225731092922    0.280505730862994  0.00122527604240137
      0.091037194572 0.000750969739385486       0.260541415925     0.00210718175422    0.254027069207447  0.00114549035981582
     0.0924595901823 0.000750981452132163       0.233198425444     0.00197181075627    0.227949362206172  0.00107217444347506
     0.0938819829761 0.000750993346253465       0.203718442648     0.00182081600318    0.202970115609896  0.00100470139414464
     0.0953043729102 0.000751005421739325       0.179902428357     0.00169407309675    0.179710249068322 0.000942514849320693
     0.0967267599411 0.000751017678579521       0.159465870211      0.0015810856865    0.158667086511478 0.000885119959787607
     0.0981491440255 0.000751030116763682       0.139745756765     0.00146746640219    0.140177045284865 0.000832075657391923
     0.0995715251202 0.000751042736281284       0.126108664385     0.00138566532441     0.12439548221896 0.000782988010059474
      0.100993903182 0.000751055537121649       0.112524602447     0.00130099949817    0.111297594589446 0.000737504495213068
      0.102416278167 0.000751068519273941       0.102319996657     0.00123490813755    0.100699602050745 0.000695309051438899
      0.103838650032 0.000751081682727178      0.0923451938816     0.00116785769893   0.0922952575654656 0.000656117791529021
      0.105261018734 0.000751095027470228       0.086452774134     0.00112693280748   0.0857003310857334 0.000619675279389955
       0.10668338423 0.000751108553491803      0.0807360861031      0.0010861680282   0.0804975152834561 0.000585751288852731
      0.108105746476 0.000751122260780457      0.0782499283608     0.00106807991715   0.0762757877460082 0.000554137975524414
      0.109528105429 0.000751136149324599       0.074804005069     0.00104262552508   0.0726607177251878 0.000524647403470557
      0.110950461045 0.000751150219112476      0.0717636165127     0.00101976905544   0.0693346238485977 0.000497109377704617
      0.112372813282 0.000751164470132202      0.0692369052886     0.00100047071944   0.0660472938568916 0.000471369540553081
      0.113795162096  0.00075117890237172      0.0658044998135    0.000973787182507   0.0626189845750293 0.000447287696629117
      0.115217507443  0.00075119351581882      0.0610469014476    0.000935831757317   0.0589377335645407 0.000424736335873322
      0.116639849281 0.000751208310461158      0.0568029804151    0.000900911670889   0.0549528669331358  0.00040359932889511
      0.118062187565  0.00075122328628621       0.051153205622    0.000852651373305   0.0506662186692511 0.000383770772509104
      0.119484522253 0.000751238443281329      0.0459089655654    0.000805749994439   0.0461221641812699 0.000365153966123132
      0.120906853302 0.000751253781433706      0.0424490783547    0.000773512018533   0.0413972189404191 0.000347660502869963
      0.122329180667  0.00075126930073036      0.0366782244134    0.000717022413013   0.0365897038310844 0.000331209461110132
      0.123751504306 0.000751285001158187       0.032705241141    0.000675774607553   0.0318098323342871 0.000315726684035161
      0.125173824175 0.000751300882703912      0.0279482240383    0.000623256835424   0.0271705076740085  0.00030114413693679
      0.126596140232 0.000751316945354128      0.0231236178092    0.000565581758074   0.0227790975784586 0.000287399332698033
      0.128018452432 0.000751333189095245      0.0191641523513    0.000513885901012   0.0187304479589279 0.000274434817680281
      0.129440760732 0.000751349613913542         0.0141359001    0.000440271397973   0.0151013773852959 0.000262197710820842
      0.130863065089 0.000751366219795145      0.0120352606732    5.97466838036e-05   0.0119468454782517 0.000250639290004469
       0.13228536546 0.000751383006726032     0.00934358447845    4.93090836114e-05  0.00929790484660801 0.000239714620276486
      0.133707661802 0.000751399974692025       0.007159964344    4.06431350028e-05  0.00716143466422362 0.000229382219237887
       0.13512995407 0.000751417123678775      0.0055887953509    3.42157019178e-05  0.00552152927414063 0.000219603755527958
      0.136552242222 0.000751434453671812     0.00434438216249    2.89307750414e-05  0.00434229665634092 0.000210343776720353
      0.137974526215 0.000751451964656508     0.00361685846449    2.57148597532e-05  0.00357172777507874  0.00020156946356522
      0.139396806004 0.000751469656618054      0.0032326339746    2.39622827213e-05  0.00314624197923458  0.00019325040768303
      0.140819081547 0.000751487529541531     0.00306589923611    2.31866348511e-05  0.00299550150360175 0.000185358410223526
      0.142241352801 0.000751505583411852     0.00318062969614    2.37193714533e-05  0.00304711708642133 0.000177867299386934
      0.143663619722 0.000751523818213769     0.00337496823168    2.47063536734e-05  0.00323092780956531 0.000170752764785117
      0.145085882266 0.000751542233931882      0.0036949756928    2.61589950027e-05  0.00348261895658101 0.000163992206942229
      0.146508140391 0.000751560830550665     0.00397145575941    2.73928607322e-05  0.00374652890841762  0.00015756460040634
      0.147930394053 0.000751579608054414     0.00421400608699    2.84612866375e-05  0.00397757888247213 0.000151450369141979
      0.149352643209  0.00075159856642729     0.00432489280365    2.89462301701e-05  0.00414233013783463 0.000145631272930673
      0.150774887815 0.000751617705653286     0.00441551630015    2.93399338413e-05  0.00421922833771677 0.000140090303754443
      0.152197127829 0.000751637025716273     0.00440570235966    2.92971621979e-05  0.00419813355807765 0.000134811591153822
      0.153619363206 0.000751656526599929     0.00423975754483    2.85742069983e-05  0.00407925862314342 0.000129780315748973
      0.155041593904 0.000751676208287825     0.00402447267002    2.76282468751e-05  0.00387165082729593 0.000124982630079399
      0.156463819879  0.00075169607076335     0.00376295683488    2.64655617869e-05  0.00359135562087645 0.000120405586151762
      0.157886041087 0.000751716114009744     0.00337408957571    2.47042895404e-05  0.00325939799585423 0.000116037069009196
      0.159308257487 0.000751736338010139     0.00308011744466    2.33425864036e-05   0.0028997098624391 0.000111865735788724
      0.160730469033 0.000751756742747443     0.00261365787108    2.11158744366e-05   0.0025371206664904 0.000107880959799159
      0.162152675683 0.000751777328204473      0.0022931908026    1.95260552448e-05  0.00219551429053968 0.000104072779085162
      0.163574877394  0.00075179809436388     0.00195542091802     1.7781265055e-05  0.00189623813744824 0.000100431849162925
      0.164997074122 0.000751819041208152     0.00171939970045    1.65088742694e-05  0.00165683038986086 9.69493995037627e-05
      0.166419265824 0.000751840168719637     0.00153650353356    1.54844721767e-05  0.00149010931390226 9.36171934454537e-05
      0.167841452457 0.000751861476880536     0.00142038542022    1.48131868323e-05  0.00140364498992773 9.04274912444047e-05
      0.169263633977 0.000751882965672885     0.00142606290655    1.48464289689e-05  0.00139961026156165 8.73730159895795e-05
       0.17068581034 0.000751904635078568      0.0014925706036    1.52325652606e-05  0.00147498549023654 8.44469221291904e-05
      0.172107981505 0.000751926485079365     0.00161643442974    1.59373580224e-05  0.00162207239939569 8.16427663891147e-05
      0.173530147426 0.000751948515656829     0.00180153400168    1.69585580227e-05  0.00182925720313891 7.89544809068295e-05
      0.174952308062 0.000751970726792442     0.00205381716225    1.82992953111e-05  0.00208195326342676 7.63763483402803e-05
      0.176374463368  0.00075199311846747      0.0023343525766    1.97344470814e-05  0.00236364908251049 7.39029788580895e-05
      0.177796613302 0.000752015690663082     0.00260542551408    2.10763821058e-05  0.00265698837901874 7.15292887929278e-05
      0.179218757819 0.000752038443360243     0.00289958689434    2.24920938466e-05  0.00294481463681561 6.92504808738051e-05
      0.180640896878 0.000752061376539838     0.00321740446812    2.39825517742e-05  0.00321112188905076 6.70620258665588e-05
      0.182063030433 0.000752084490182517     0.00343099961467    2.49651513109e-05  0.00344186537789845 6.49596455560147e-05
      0.183485158443 0.000752107784268866     0.00358430526397    2.56621682408e-05  0.00362559894766205 6.29392969100106e-05
      0.184907280863 0.000752131258779252      0.0037512639166      2.641398538e-05  0.00375391944445643 6.09971573885016e-05
      0.186329397651 0.000752154913693944     0.00387658766861    2.69733282329e-05  0.00382171117786295 5.91296112583135e-05
      0.187751508763 0.000752178748993029     0.00385267463694    2.68668280435e-05  0.00382719496053969 5.73332368744628e-05
      0.189173614156  0.00075220276465646     0.00376766103801    2.64872359174e-05  0.00377179601871954 5.56047948270879e-05
      0.190595713786 0.000752226960664025     0.00367332014005    2.60639193999e-05  0.00365985293454346 5.39412169048446e-05
       0.19201780761 0.000752251336995379     0.00348570625226    2.52151940827e-05  0.00349819570206223 5.23395958020069e-05
      0.193439895585 0.000752275893630027     0.00333914599882    2.45448440255e-05  0.00329562498805341 5.07971755217844e-05
      0.194861977668 0.000752300630547327     0.00308701153477    2.33760521939e-05  0.00306232687820547 4.93113424193383e-05
      0.196284053814 0.000752325547726453     0.00285420755945    2.22766508554e-05   0.0028092578713251 4.78796168404548e-05
      0.197706123982 0.000752350645146498     0.00256368247262    2.08728404235e-05  0.00254753377773258 4.64996453022879e-05
      0.199128188127 0.000752375922786338     0.00231195354194    1.96222677466e-05  0.00228785362827393 4.51691931983534e-05
      0.200550246206 0.000752401380624735     0.00203928550175    1.82246477035e-05  0.00203998584478403 4.38861379627968e-05
      0.201972298176 0.000752427018640302      0.0018164982344    1.70414620999e-05  0.00181233899264637  4.2648462682051e-05
      0.203394343994 0.000752452836811504     0.00159668488852    1.58290040676e-05  0.00161163364687176 4.14542501125668e-05
      0.204816383616 0.000752478835116639     0.00142823927619    1.48627561179e-05  0.00144268557650355 4.03016770786426e-05
      0.206238416999 0.000752505013533874     0.00128250360926     1.3995115781e-05  0.00130830391738635  3.9189009220474e-05
      0.207660444099  0.00075253137204121      0.0011998195825    1.34864695972e-05  0.00120930162879181 3.81145960736538e-05
      0.209082464874 0.000752557910616538      0.0011205150117    1.29866515456e-05  0.00114460966687625 3.70768664502229e-05
       0.21050447928 0.000752584629237562     0.00109082085699    1.27957157118e-05  0.00111148128679389 3.60743241095179e-05
      0.211926487274 0.000752611527881857     0.00108626985584    1.27656916617e-05  0.00110576895597618  3.5105543688854e-05
      0.213348488811 0.000752638606526812     0.00109142915849     6.3819630991e-06  0.00112225370349319 3.41691668856948e-05
       0.21477048385 0.000752665865149744     0.00112026718402    6.87719049242e-06  0.00115500541289143 3.32638988643272e-05
      0.216192472347 0.000752693303727766     0.00116189757771    7.05034664085e-06  0.00119775256807548 3.23885048863194e-05
      0.217614454258 0.000752720922237841     0.00121623472667     7.2749655485e-06  0.00124424117015795 3.15418071351669e-05
       0.21903642954 0.000752748720656806     0.00125786512065    7.44612931396e-06  0.00128856477382321  3.0722681730098e-05
       0.22045839815 0.000752776698961349     0.00129284474508     7.5893713891e-06  0.00132545061437058 2.99300559164669e-05
      0.221880360044  0.00075280485712799     0.00133221135443    7.74968165455e-06  0.00135049035770399 2.91629054200301e-05
      0.223302315179 0.000752833195133124      0.0013433797814    7.79494488572e-06  0.00136030784984671 2.84202519529937e-05
      0.224724263513 0.000752861712953016     0.00132416013838    7.71661449338e-06  0.00135266013278003 2.77011608648072e-05
         0.226146205 0.000752890410563704      0.0013026424649     7.6287601863e-06   0.0013264717229341 2.70047389297995e-05
      0.227568139599 0.000752919287941181     0.00128050297122    7.53817077327e-06  0.00128180554557811 2.63301322537327e-05
      0.228990067266 0.000752948345061231     0.00119781443798    7.19851343166e-06  0.00121977685301701 2.56765243068379e-05
      0.230411987957 0.000752977581899491       0.001134456394    6.93603181628e-06  0.00114241883155877 2.50431340619628e-05
       0.23183390163 0.000753006998431492     0.00106001373391    6.62480067862e-06  0.00105251036493336 2.44292142371513e-05
      0.233255808241 0.000753036594632577     0.00094615309734    6.14183828876e-06 0.000953377542137006 2.38340496382004e-05
      0.234677707746 0.000753066370477943    0.000848486814714    5.71950179159e-06 0.000848680973326092 2.32569555898983e-05
      0.236099600102  0.00075309632594266    0.000743412765034     5.2542046191e-06 0.000742200836456752   2.269727645362e-05
      0.237521485267 0.000753126461001672     0.00063814946533    4.77397584665e-06 0.000637630863048004 2.21543842259775e-05
      0.238943363196 0.000753156775629716    0.000536995583825    4.29479165684e-06 0.000538391252384368 2.16276772147002e-05
      0.240365233847 0.000753187269801442     0.00045000838202    3.86380973128e-06 0.000447468863406456 2.11165787819399e-05
      0.241787097175 0.000753217943491293    0.000363751142256    3.41238843721e-06 0.000367291079120511 2.06205361590937e-05
      0.243208953139 0.000753248796673652    0.000298697963644    3.04975269737e-06 0.000299637573045686 2.01390193199459e-05
      0.244630801693 0.000753279829322644    0.000242972083755    2.71741058142e-06 0.000245591963797699 1.96715199187576e-05
      0.246052642796  0.00075331104141236    0.000198736354524    2.43356797683e-06 0.000205533129489955 1.92175502777279e-05
      0.247474476404 0.000753342432916679    0.000174182577659    2.26554737987e-06  0.00017916389733195 1.87766424331391e-05
      0.248896302473 0.000753374003809332    0.000159767168989    2.16240641046e-06 0.000165573013545625 1.83483472274013e-05
      0.250318120961 0.000753405754063953    0.000153719294349    2.11814303233e-06 0.000163324829305528 1.79322334482876e-05
      0.251739931823 0.000753437683653959    0.000153051513857    2.11314362341e-06 0.000170570061431673 1.75278870143122e-05
      0.253161735017 0.000753469792552689     0.00017290379107    2.25593599085e-06 0.000185170338652791 1.71349101984529e-05
      0.254583530499 0.000753502080733295    0.000195486668809    2.41079482605e-06 0.000204829030630295 1.67529208943008e-05
      0.256005318226 0.000753534548168803    0.000217420690923    2.55480813452e-06 0.000227221057846267 1.63815519169618e-05
      0.257427098154 0.000753567194832071    0.000239514222915    2.69494330267e-06 0.000250114954065074 1.60204503403188e-05
      0.258848870241 0.000753600020695859    0.000256498017476     2.7995896412e-06 0.000271481340117737 1.56692768660207e-05
      0.260270634443 0.000753633025732736    0.000275266165154    2.91238863737e-06 0.000289583095482003 1.53277052254668e-05
      0.261692390717 0.000753666209915148    0.000288951611052    2.99306016794e-06 0.000303043804933545 1.49954216095233e-05
      0.263114139019 0.000753699573215374    0.000300311991392    3.05910247919e-06 0.000310892429566856 1.46721241273713e-05
      0.264535879306  0.00075373311560557     0.00029936304069    3.05328890917e-06  0.00031258352896756 1.43575222907917e-05
      0.265957611535 0.000753766837057748    0.000293953207578    3.02171931466e-06 0.000307993672571019   1.405133652412e-05
      0.267379335663 0.000753800737543776    0.000283379565175    2.95978246281e-06 0.000297395863097405 1.37532976975757e-05
      0.268801051645  0.00075383481703533    0.000266019974526    2.85657438288e-06 0.000281414803372896  1.3463146683367e-05
       0.27022275944 0.000753869075504036    0.000248254848844    2.74849659603e-06 0.000260966632838211 1.31806339313322e-05
