#      z (A) rho (1e-6/A2) irho (1e-6/A2) rhoM (1e-6/A2) theta (degrees)
-167.25526292   2.23111000   0.00000000   0.00000000 270.00000000
-167.15526292   2.23109895   0.00000000   0.00000000 270.00000000
-167.05526292   2.23108784   0.00000000   0.00000000 270.00000000
-166.95526292   2.23107667   0.00000000   0.00000000 270.00000000
-166.85526292   2.23106544   0.00000000   0.00000000 270.00000000
-166.75526292   2.23105415   0.00000000   0.00000000 270.00000000
-166.65526292   2.23104280   0.00000000   0.00000000 270.00000000
-166.55526292   2.23103138   0.00000000   0.00000000 270.00000000
-166.45526292   2.23101991   0.00000000   0.00000000 270.00000000
-166.35526292   2.23100838   0.00000000   0.00000000 270.00000000
-166.25526292   2.23099678   0.00000000   0.00000000 270.00000000
-166.15526292   2.23098512   0.00000000   0.00000000 270.00000000
-166.05526292   2.23097340   0.00000000   0.00000000 270.00000000
-165.95526292   2.23096161   0.00000000   0.00000000 270.00000000
-165.85526292   2.23094977   0.00000000   0.00000000 270.00000000
-165.75526292   2.23093786   0.00000000   0.00000000 270.00000000
-165.65526292   2.23092588   0.00000000   0.00000000 270.00000000
-165.55526292   2.23091384   0.00000000   0.00000000 270.00000000
-165.45526292   2.23090174   0.00000000   0.00000000 270.00000000
-165.35526292   2.23088957   0.00000000   0.00000000 270.00000000
-165.25526292   2.23087734   0.00000000   0.00000000 270.00000000
-165.15526292   2.23086504   0.00000000   0.00000000 270.00000000
-165.05526292   2.23085268   0.00000000   0.00000000 270.00000000
-164.95526292   2.23084025   0.00000000   0.00000000 270.00000000
-164.85526292   2.23082776   0.00000000   0.00000000 270.00000000
-164.75526292   2.23081520   0.00000000   0.00000000 270.00000000
-164.65526292   2.23080257   0.00000000   0.00000000 270.00000000
-164.55526292   2.23078987   0.00000000   0.00000000 270.00000000
-164.45526292   2.23077711   0.00000000   0.00000000 270.00000000
-164.35526292   2.23076428   0.00000000   0.00000000 270.00000000
-164.25526292   2.23075138   0.00000000   0.00000000 270.00000000
-164.15526292   2.23073841   0.00000000   0.00000000 270.00000000
-164.05526292   2.23072538   0.00000000   0.00000000 270.00000000
-163.95526292   2.23071227   0.00000000   0.00000000 270.00000000
-163.85526292   2.23069910   0.00000000   0.00000000 270.00000000
-163.75526292   2.23068586   0.00000000   0.00000000 270.00000000
-163.65526292   2.23067254   0.00000000   0.00000000 270.00000000
-163.55526292   2.23065916   0.00000000   0.00000000 270.00000000
-163.45526292   2.23064571   0.00000000   0.00000000 270.00000000
-163.35526292   2.23063218   0.00000000   0.00000000 270.00000000
-163.25526292   2.23061859   0.00000000   0.00000000 270.00000000
-163.15526292   2.23060492   0.00000000   0.00000000 270.00000000
-163.05526292   2.23059118   0.00000000   0.00000000 270.00000000
-162.95526292   2.23057737   0.00000000   0.00000000 270.00000000
-162.85526292   2.23056348   0.00000000   0.00000000 270.00000000
-162.75526292   2.23054952   0.00000000   0.00000000 270.00000000
-162.65526292   2.23053549   0.00000000   0.00000000 270.00000000
-162.55526292   2.23052139   0.00000000   0.00000000 270.00000000
-162.45526292   2.23050721   0.00000000   0.00000000 270.00000000
-162.35526292   2.23049296   0.00000000   0.00000000 270.00000000
-162.25526292   2.23047863   0.00000000   0.00000000 270.00000000
-162.15526292   2.23046423   0.00000000   0.00000000 270.00000000
-162.05526292   2.23044975   0.00000000   0.00000000 270.00000000
-161.95526292   2.23043520   0.00000000   0.00000000 270.00000000
-161.85526292   2.23042057   0.00000000   0.00000000 270.00000000
-161.75526292   2.23040586   0.00000000   0.00000000 270.00000000
-161.65526292   2.23039108   0.00000000   0.00000000 270.00000000
-161.55526292   2.23037622   0.00000000   0.00000000 270.00000000
-161.45526292   2.23036128   0.00000000   0.00000000 270.00000000
-161.35526292   2.23034627   0.00000000   0.00000000 270.00000000
-161.25526292   2.23033117   0.00000000   0.00000000 270.00000000
-161.15526292   2.23031600   0.00000000   0.00000000 270.00000000
-161.05526292   2.23030075   0.00000000   0.00000000 270.00000000
-160.95526292   2.23028542   0.00000000   0.00000000 270.00000000
-160.85526292   2.23027001   0.00000000   0.00000000 270.00000000
-160.75526292   2.23025452   0.00000000   0.00000000 270.00000000
-160.65526292   2.23023896   0.00000000   0.00000000 270.00000000
-160.55526292   2.23022331   0.00000000   0.00000000 270.00000000
-160.45526292   2.23020757   0.00000000   0.00000000 270.00000000
-160.35526292   2.23019176   0.00000000   0.00000000 270.00000000
-160.25526292   2.23017587   0.00000000   0.00000000 270.00000000
-160.15526292   2.23015989   0.00000000   0.00000000 270.00000000
-160.05526292   2.23014383   0.00000000   0.00000000 270.00000000
-159.95526292   2.23012769   0.00000000   0.00000000 270.00000000
-159.85526292   2.23011146   0.00000000   0.00000000 270.00000000
-159.75526292   2.23009516   0.00000000   0.00000000 270.00000000
-159.65526292   2.23007876   0.00000000   0.00000000 270.00000000
-159.55526292   2.23006228   0.00000000   0.00000000 270.00000000
-159.45526292   2.23004572   0.00000000   0.00000000 270.00000000
-159.35526292   2.23002908   0.00000000   0.00000000 270.00000000
-159.25526292   2.23001234   0.00000000   0.00000000 270.00000000
-159.15526292   2.22999552   0.00000000   0.00000000 270.00000000
-159.05526292   2.22997862   0.00000000   0.00000000 270.00000000
-158.95526292   2.22996163   0.00000000   0.00000000 270.00000000
-158.85526292   2.22994455   0.00000000   0.00000000 270.00000000
-158.75526292   2.22992738   0.00000000   0.00000000 270.00000000
-158.65526292   2.22991013   0.00000000   0.00000000 270.00000000
-158.55526292   2.22989278   0.00000000   0.00000000 270.00000000
-158.45526292   2.22987535   0.00000000   0.00000000 270.00000000
-158.35526292   2.22985783   0.00000000   0.00000000 270.00000000
-158.25526292   2.22984022   0.00000000   0.00000000 270.00000000
-158.15526292   2.22982252   0.00000000   0.00000000 270.00000000
-158.05526292   2.22980473   0.00000000   0.00000000 270.00000000
-157.95526292   2.22978685   0.00000000   0.00000000 270.00000000
-157.85526292   2.22976888   0.00000000   0.00000000 270.00000000
-157.75526292   2.22975081   0.00000000   0.00000000 270.00000000
-157.65526292   2.22973266   0.00000000   0.00000000 270.00000000
-157.55526292   2.22971441   0.00000000   0.00000000 270.00000000
-157.45526292   2.22969607   0.00000000   0.00000000 270.00000000
-157.35526292   2.22967764   0.00000000   0.00000000 270.00000000
-157.25526292   2.22965911   0.00000000   0.00000000 270.00000000
-157.15526292   2.22964049   0.00000000   0.00000000 270.00000000
-157.05526292   2.22962177   0.00000000   0.00000000 270.00000000
-156.95526292   2.22960296   0.00000000   0.00000000 270.00000000
-156.85526292   2.22958406   0.00000000   0.00000000 270.00000000
-156.75526292   2.22956506   0.00000000   0.00000000 270.00000000
-156.65526292   2.22954596   0.00000000   0.00000000 270.00000000
-156.55526292   2.22952677   0.00000000   0.00000000 270.00000000
-156.45526292   2.22950747   0.00000000   0.00000000 270.00000000
-156.35526292   2.22948809   0.00000000   0.00000000 270.00000000
-156.25526292   2.22946860   0.00000000   0.00000000 270.00000000
-156.15526292   2.22944902   0.00000000   0.00000000 270.00000000
-156.05526292   2.22942933   0.00000000   0.00000000 270.00000000
-155.95526292   2.22940955   0.00000000   0.00000000 270.00000000
-155.85526292   2.22938967   0.00000000   0.00000000 270.00000000
-155.75526292   2.22936969   0.00000000   0.00000000 270.00000000
-155.65526292   2.22934961   0.00000000   0.00000000 270.00000000
-155.55526292   2.22932943   0.00000000   0.00000000 270.00000000
-155.45526292   2.22930914   0.00000000   0.00000000 270.00000000
-155.35526292   2.22928876   0.00000000   0.00000000 270.00000000
-155.25526292   2.22926827   0.00000000   0.00000000 270.00000000
-155.15526292   2.22924768   0.00000000   0.00000000 270.00000000
-155.05526292   2.22922699   0.00000000   0.00000000 270.00000000
-154.95526292   2.22920619   0.00000000   0.00000000 270.00000000
-154.85526292   2.22918529   0.00000000   0.00000000 270.00000000
-154.75526292   2.22916428   0.00000000   0.00000000 270.00000000
-154.65526292   2.22914317   0.00000000   0.00000000 270.00000000
-154.55526292   2.22912196   0.00000000   0.00000000 270.00000000
-154.45526292   2.22910064   0.00000000   0.00000000 270.00000000
-154.35526292   2.22907921   0.00000000   0.00000000 270.00000000
-154.25526292   2.22905768   0.00000000   0.00000000 270.00000000
-154.15526292   2.22903604   0.00000000   0.00000000 270.00000000
-154.05526292   2.22901429   0.00000000   0.00000000 270.00000000
-153.95526292   2.22899243   0.00000000   0.00000000 270.00000000
-153.85526292   2.22897047   0.00000000   0.00000000 270.00000000
-153.75526292   2.22894839   0.00000000   0.00000000 270.00000000
-153.65526292   2.22892621   0.00000000   0.00000000 270.00000000
-153.55526292   2.22890392   0.00000000   0.00000000 270.00000000
-153.45526292   2.22888151   0.00000000   0.00000000 270.00000000
-153.35526292   2.22885900   0.00000000   0.00000000 270.00000000
-153.25526292   2.22883637   0.00000000   0.00000000 270.00000000
-153.15526292   2.22881363   0.00000000   0.00000000 270.00000000
-153.05526292   2.22879078   0.00000000   0.00000000 270.00000000
-152.95526292   2.22876782   0.00000000   0.00000000 270.00000000
-152.85526292   2.22874475   0.00000000   0.00000000 270.00000000
-152.75526292   2.22872156   0.00000000   0.00000000 270.00000000
-152.65526292   2.22869825   0.00000000   0.00000000 270.00000000
-152.55526292   2.22867483   0.00000000   0.00000000 270.00000000
-152.45526292   2.22865130   0.00000000   0.00000000 270.00000000
-152.35526292   2.22862765   0.00000000   0.00000000 270.00000000
-152.25526292   2.22860388   0.00000000   0.00000000 270.00000000
-152.15526292   2.22858000   0.00000000   0.00000000 270.00000000
-152.05526292   2.22855600   0.00000000   0.00000000 270.00000000
-151.95526292   2.22853188   0.00000000   0.00000000 270.00000000
-151.85526292   2.22850765   0.00000000   0.00000000 270.00000000
-151.75526292   2.22848329   0.00000000   0.00000000 270.00000000
-151.65526292   2.22845882   0.00000000   0.00000000 270.00000000
-151.55526292   2.22843422   0.00000000   0.00000000 270.00000000
-151.45526292   2.22840951   0.00000000   0.00000000 270.00000000
-151.35526292   2.22838468   0.00000000   0.00000000 270.00000000
-151.25526292   2.22835972   0.00000000   0.00000000 270.00000000
-151.15526292   2.22833464   0.00000000   0.00000000 270.00000000
-151.05526292   2.22830944   0.00000000   0.00000000 270.00000000
-150.95526292   2.22828412   0.00000000   0.00000000 270.00000000
-150.85526292   2.22825867   0.00000000   0.00000000 270.00000000
-150.75526292   2.22823311   0.00000000   0.00000000 270.00000000
-150.65526292   2.22820741   0.00000000   0.00000000 270.00000000
-150.55526292   2.22818159   0.00000000   0.00000000 270.00000000
-150.45526292   2.22815565   0.00000000   0.00000000 270.00000000
-150.35526292   2.22812958   0.00000000   0.00000000 270.00000000
-150.25526292   2.22810338   0.00000000   0.00000000 270.00000000
-150.15526292   2.22807706   0.00000000   0.00000000 270.00000000
-150.05526292   2.22805061   0.00000000   0.00000000 270.00000000
-149.95526292   2.22802403   0.00000000   0.00000000 270.00000000
-149.85526292   2.22799732   0.00000000   0.00000000 270.00000000
-149.75526292   2.22797049   0.00000000   0.00000000 270.00000000
-149.65526292   2.22794352   0.00000000   0.00000000 270.00000000
-149.55526292   2.22791642   0.00000000   0.00000000 270.00000000
-149.45526292   2.22788920   0.00000000   0.00000000 270.00000000
-149.35526292   2.22786184   0.00000000   0.00000000 270.00000000
-149.25526292   2.22783435   0.00000000   0.00000000 270.00000000
-149.15526292   2.22780673   0.00000000   0.00000000 270.00000000
-149.05526292   2.22777897   0.00000000   0.00000000 270.00000000
-148.95526292   2.22775108   0.00000000   0.00000000 270.00000000
-148.85526292   2.22772306   0.00000000   0.00000000 270.00000000
-148.75526292   2.22769490   0.00000000   0.00000000 270.00000000
-148.65526292   2.22766661   0.00000000   0.00000000 270.00000000
-148.55526292   2.22763819   0.00000000   0.00000000 270.00000000
-148.45526292   2.22760962   0.00000000   0.00000000 270.00000000
-148.35526292   2.22758092   0.00000000   0.00000000 270.00000000
-148.25526292   2.22755208   0.00000000   0.00000000 270.00000000
-148.15526292   2.22752311   0.00000000   0.00000000 270.00000000
-148.05526292   2.22749399   0.00000000   0.00000000 270.00000000
-147.95526292   2.22746474   0.00000000   0.00000000 270.00000000
-147.85526292   2.22743535   0.00000000   0.00000000 270.00000000
-147.75526292   2.22740581   0.00000000   0.00000000 270.00000000
-147.65526292   2.22737614   0.00000000   0.00000000 270.00000000
-147.55526292   2.22734633   0.00000000   0.00000000 270.00000000
-147.45526292   2.22731637   0.00000000   0.00000000 270.00000000
-147.35526292   2.22728627   0.00000000   0.00000000 270.00000000
-147.25526292   2.22725603   0.00000000   0.00000000 270.00000000
-147.15526292   2.22722564   0.00000000   0.00000000 270.00000000
-147.05526292   2.22719511   0.00000000   0.00000000 270.00000000
-146.95526292   2.22716444   0.00000000   0.00000000 270.00000000
-146.85526292   2.22713362   0.00000000   0.00000000 270.00000000
-146.75526292   2.22710265   0.00000000   0.00000000 270.00000000
-146.65526292   2.22707154   0.00000000   0.00000000 270.00000000
-146.55526292   2.22704028   0.00000000   0.00000000 270.00000000
-146.45526292   2.22700887   0.00000000   0.00000000 270.00000000
-146.35526292   2.22697731   0.00000000   0.00000000 270.00000000
-146.25526292   2.22694561   0.00000000   0.00000000 270.00000000
-146.15526292   2.22691375   0.00000000   0.00000000 270.00000000
-146.05526292   2.22688175   0.00000000   0.00000000 270.00000000
-145.95526292   2.22684959   0.00000000   0.00000000 270.00000000
-145.85526292   2.22681729   0.00000000   0.00000000 270.00000000
-145.75526292   2.22678483   0.00000000   0.00000000 270.00000000
-145.65526292   2.22675222   0.00000000   0.00000000 270.00000000
-145.55526292   2.22671945   0.00000000   0.00000000 270.00000000
-145.45526292   2.22668654   0.00000000   0.00000000 270.00000000
-145.35526292   2.22665346   0.00000000   0.00000000 270.00000000
-145.25526292   2.22662024   0.00000000   0.00000000 270.00000000
-145.15526292   2.22658685   0.00000000   0.00000000 270.00000000
-145.05526292   2.22655331   0.00000000   0.00000000 270.00000000
-144.95526292   2.22651962   0.00000000   0.00000000 270.00000000
-144.85526292   2.22648576   0.00000000   0.00000000 270.00000000
-144.75526292   2.22645175   0.00000000   0.00000000 270.00000000
-144.65526292   2.22641758   0.00000000   0.00000000 270.00000000
-144.55526292   2.22638325   0.00000000   0.00000000 270.00000000
-144.45526292   2.22634876   0.00000000   0.00000000 270.00000000
-144.35526292   2.22631411   0.00000000   0.00000000 270.00000000
-144.25526292   2.22627930   0.00000000   0.00000000 270.00000000
-144.15526292   2.22624432   0.00000000   0.00000000 270.00000000
-144.05526292   2.22620919   0.00000000   0.00000000 270.00000000
-143.95526292   2.22617389   0.00000000   0.00000000 270.00000000
-143.85526292   2.22613842   0.00000000   0.00000000 270.00000000
-143.75526292   2.22610279   0.00000000   0.00000000 270.00000000
-143.65526292   2.22606700   0.00000000   0.00000000 270.00000000
-143.55526292   2.22603104   0.00000000   0.00000000 270.00000000
-143.45526292   2.22599491   0.00000000   0.00000000 270.00000000
-143.35526292   2.22595862   0.00000000   0.00000000 270.00000000
-143.25526292   2.22592216   0.00000000   0.00000000 270.00000000
-143.15526292   2.22588553   0.00000000   0.00000000 270.00000000
-143.05526292   2.22584873   0.00000000   0.00000000 270.00000000
-142.95526292   2.22581177   0.00000000   0.00000000 270.00000000
-142.85526292   2.22577463   0.00000000   0.00000000 270.00000000
-142.75526292   2.22573732   0.00000000   0.00000000 270.00000000
-142.65526292   2.22569984   0.00000000   0.00000000 270.00000000
-142.55526292   2.22566218   0.00000000   0.00000000 270.00000000
-142.45526292   2.22562436   0.00000000   0.00000000 270.00000000
-142.35526292   2.22558636   0.00000000   0.00000000 270.00000000
-142.25526292   2.22554818   0.00000000   0.00000000 270.00000000
-142.15526292   2.22550983   0.00000000   0.00000000 270.00000000
-142.05526292   2.22547131   0.00000000   0.00000000 270.00000000
-141.95526292   2.22543260   0.00000000   0.00000000 270.00000000
-141.85526292   2.22539372   0.00000000   0.00000000 270.00000000
-141.75526292   2.22535467   0.00000000   0.00000000 270.00000000
-141.65526292   2.22531543   0.00000000   0.00000000 270.00000000
-141.55526292   2.22527602   0.00000000   0.00000000 270.00000000
-141.45526292   2.22523642   0.00000000   0.00000000 270.00000000
-141.35526292   2.22519665   0.00000000   0.00000000 270.00000000
-141.25526292   2.22515669   0.00000000   0.00000000 270.00000000
-141.15526292   2.22511655   0.00000000   0.00000000 270.00000000
-141.05526292   2.22507623   0.00000000   0.00000000 270.00000000
-140.95526292   2.22503572   0.00000000   0.00000000 270.00000000
-140.85526292   2.22499503   0.00000000   0.00000000 270.00000000
-140.75526292   2.22495416   0.00000000   0.00000000 270.00000000
-140.65526292   2.22491310   0.00000000   0.00000000 270.00000000
-140.55526292   2.22487186   0.00000000   0.00000000 270.00000000
-140.45526292   2.22483042   0.00000000   0.00000000 270.00000000
-140.35526292   2.22478880   0.00000000   0.00000000 270.00000000
-140.25526292   2.22474700   0.00000000   0.00000000 270.00000000
-140.15526292   2.22470500   0.00000000   0.00000000 270.00000000
-140.05526292   2.22466281   0.00000000   0.00000000 270.00000000
-139.95526292   2.22462043   0.00000000   0.00000000 270.00000000
-139.85526292   2.22457786   0.00000000   0.00000000 270.00000000
-139.75526292   2.22453510   0.00000000   0.00000000 270.00000000
-139.65526292   2.22449215   0.00000000   0.00000000 270.00000000
-139.55526292   2.22444900   0.00000000   0.00000000 270.00000000
-139.45526292   2.22440566   0.00000000   0.00000000 270.00000000
-139.35526292   2.22436212   0.00000000   0.00000000 270.00000000
-139.25526292   2.22431839   0.00000000   0.00000000 270.00000000
-139.15526292   2.22427446   0.00000000   0.00000000 270.00000000
-139.05526292   2.22423034   0.00000000   0.00000000 270.00000000
-138.95526292   2.22418601   0.00000000   0.00000000 270.00000000
-138.85526292   2.22414149   0.00000000   0.00000000 270.00000000
-138.75526292   2.22409677   0.00000000   0.00000000 270.00000000
-138.65526292   2.22405185   0.00000000   0.00000000 270.00000000
-138.55526292   2.22400673   0.00000000   0.00000000 270.00000000
-138.45526292   2.22396140   0.00000000   0.00000000 270.00000000
-138.35526292   2.22391588   0.00000000   0.00000000 270.00000000
-138.25526292   2.22387015   0.00000000   0.00000000 270.00000000
-138.15526292   2.22382422   0.00000000   0.00000000 270.00000000
-138.05526292   2.22377808   0.00000000   0.00000000 270.00000000
-137.95526292   2.22373174   0.00000000   0.00000000 270.00000000
-137.85526292   2.22368519   0.00000000   0.00000000 270.00000000
-137.75526292   2.22363843   0.00000000   0.00000000 270.00000000
-137.65526292   2.22359147   0.00000000   0.00000000 270.00000000
-137.55526292   2.22354429   0.00000000   0.00000000 270.00000000
-137.45526292   2.22349691   0.00000000   0.00000000 270.00000000
-137.35526292   2.22344932   0.00000000   0.00000000 270.00000000
-137.25526292   2.22340152   0.00000000   0.00000000 270.00000000
