# intensity: 0.965476430247041
# background: 0
#           Q (1/A)             dQ (1/A)                    R                   dR               theory              fresnel
  0.0100976740941405 0.000298983967676463    0.965405862123547   0.0102637374386372    0.963812568838879     0.71917677638076
  0.0105407405644655 0.000300768978964674    0.947539303417396   0.0100907559016562    0.958752992044836    0.515203677087362
  0.0109749650582671 0.000302542676220672    0.940726447667846   0.0100311390863223    0.951397725940414    0.300333111603946
  0.0114136096090078 0.000304358404464016    0.943196880160382   0.0100146439767608    0.943023051991632    0.181254775867741
  0.0118522550910711 0.000306197788023278    0.927143922545752   0.0099112817796712    0.933374529055174    0.124810197170054
  0.0122908987104893  0.00030806044950623    0.929971594893802  0.00994397220310285    0.921605872412719    0.092344422496958
  0.0127295413985848 0.000309945933979489    0.911481053038853  0.00975472636838775    0.906909857181281   0.0711647847060066
  0.0131681831553578  0.00031185380730833    0.903875419142294  0.00974313481596232    0.888379708318903   0.0563954664135265
  0.0136068286374211 0.000313783712203649    0.881864959606714  0.00952619266550613     0.86493684449639   0.0456360789366206
  0.0140454713255167 0.000315735208800561    0.860106135399623   0.0093703250032958    0.835317979873517   0.0375445514694772
  0.0144841112196445 0.000317707903577069    0.818651658181809  0.00904447099688934    0.798118396708711   0.0313081070104661
  0.0149271506816149 0.000319721526965076    0.773732069419352  0.00867651929476005    0.751441126169562   0.0263603944991648
  0.0153613947331905 0.000321715376799189    0.706975474841862   0.0081041338650115    0.695694303406325   0.0224845885327768
  0.0158000346273184 0.000323749366193884    0.647539433033302  0.00761512167973735    0.628954692653028   0.0193095791305115
  0.0162386763840914 0.000325803012955038    0.566279842779695  0.00689128770447634    0.552661628989158   0.0167059010994837
  0.0166773162782192 0.000327875940341101    0.484236335710795  0.00624118243672319    0.469539571198388   0.0145487122752062
  0.0171159543097019 0.000329967826925546    0.396957214183256   0.0054860434201914    0.384239369993585   0.0127451230708195
  0.0175590254366398 0.000332099691553251    0.309695783755403  0.00466202570344617    0.301910270435876   0.0112105172372029
  0.0179932322353125  0.00033420694567638    0.239471483217171  0.00400809339223876    0.230871187209175  0.00993352478910834
  0.0184362512081861 0.000336260346216705    0.178618276022526  0.00334804371322293    0.172718631726048  0.00881985291026241
  0.0188705064356327 0.000337438307293371    0.124307715934363  0.00271923713701844     0.13165697995495   0.0078808623890497
  0.0193091444671154 0.000338651672611226    0.099045092890099  0.00241466270254372    0.105628845481864  0.00706036282484538
  0.0197433866560459 0.000339875945621722   0.0857805403277229  0.00222146639418726   0.0927087170332141  0.00635410813323329
  0.0201908145099878 0.000341161066269967   0.0783219314864082  0.00212390079744471   0.0893116657618506  0.00571922060650203
  0.0206250473856926  0.00034243112915519   0.0808119943773635  0.00216736031217497   0.0923007781325023   0.0051792254085954
   0.021068112924695 0.000343749801628925   0.0894066425074025  0.00227521960728526   0.0988655810294841  0.00469416032652547
  0.0214979443699121 0.000345051019798781    0.097453082634656  0.00239121167788489    0.106502525415644  0.00427881624329972
  0.0219409484416246 0.000381469635058565    0.104520295990221  0.00184987949665795    0.113976136112641  0.00390499253103129
  0.0228182133287191 0.000388147351302768    0.120914187940497   0.0020000825917118    0.125037734254011  0.00327420033257551
  0.0237042475491762 0.000394878038951513    0.125107770984666  0.00200515516963903    0.128778495342622  0.00276005940336994
  0.0245815049856901 0.000401625457010118    0.127937447833639  0.00201111492601274    0.124758008449708  0.00234828562078674
  0.0254412107169628 0.000408477005775015    0.125372898333125  0.00196419145979181    0.114496844459372  0.00201810715002161
   0.026336008682847 0.000415024466104038    0.109628801870852  0.00178376191777833   0.0990842668121677  0.00173478106767883
  0.0272044837474823 0.000421817439435162   0.0908306266404736  0.00157867158254206   0.0815747414451289  0.00150635200432506
  0.0280729588121176 0.000428960781070171   0.0688879412061204  0.00133144198619139   0.0635038711093571  0.00131497670947847
  0.0289677418768406 0.000435436589157688   0.0513862351439608  0.00112015803421801   0.0460725283741766   0.0011489066365419
  0.0298362094908953 0.000442281290827535   0.0347661635872564 0.000900143373202342   0.0315936653688715  0.00101231796171537
  0.0307134445756674 0.000449543691162893   0.0214428045575305 0.000688761981540047   0.0201590895387096 0.000894640711193491
  0.0315994471311569 0.000456237767925774   0.0124354095108194 0.000513871288900191   0.0120435282806157 0.000792806623781734
  0.0324766784906387 0.000463542442991283  0.00649018178275457 0.000325691003969469  0.00713152756082097 0.000705983966950001
  0.0333363525569439  0.00047058350158706  0.00516285783669645 0.000287718155655836  0.00477403446788095 0.000632274829604161
  0.0342135690152645 0.000477110746494978  0.00547481016645729 0.000293199497735326  0.00414742430468656 0.000566800752097933
   0.035099558532238 0.000484363570175566  0.00614042989877098 0.000307923166729283  0.00458640952970981 0.000509113174021316
  0.0359592288732529 0.000491172480770457  0.00732290997190757 0.000334223514665322  0.00542682886240188 0.000460050670842068
  0.0368452034890652 0.000498434014421646  0.00812667382937218 0.000348783035923043  0.00624611029331934 0.000415572634990113
  0.0377136319875717 0.000505637418839558  0.00727661329268102 0.000296142901944146  0.00670874573627903 0.000377103996518879
  0.0385908335447311 0.000512415724265535   0.0071188405441661 0.000290757680201921  0.00670179231867286 0.000342697973501384
  0.0394680202007294 0.000519545637320147  0.00626241476318634 0.000269837975553018  0.00622037923248237 0.000312155669733805
  0.0403539836406708 0.000526740956133944  0.00502546715012472 0.000240581377975932  0.00535170750232406 0.000284704760064092
  0.0412311665713787 0.000533874195212794  0.00377533733367094 0.000205620298735488  0.00426553570970117 0.000260450645813713
  0.0420995689928532  0.00054114800450873  0.00257617757178708 0.000167995370999135  0.00313302392458344 0.000238952351711209
   0.042994286864996 0.000548283202508735  0.00166466190162913 0.000133638079914426  0.00206184239558647 0.000219084647459321
  0.0438714548945427 0.000555455875259599 0.000581164528250056 4.25111267092154e-05  0.00122067183076806 0.000201577028613019
  0.0447310693562031  0.00056271348328862 0.000297145172768154 3.72491005697562e-05 0.000660614467877862 0.000186098904934618
   0.045625776052475 0.000569560638724872 0.000174647432787976 2.86810146622228e-05 0.000366690852728822 0.000171541043124151
  0.0464853830635548 0.000576840136011376 0.000436095451457751 4.40402651666991e-05 0.000330822826028696 0.000158876493040093
  0.0473625250160694 0.000584233255856152 0.000743457785767278 5.67291496211074e-05 0.000480922079195933 0.000147145328451738
  0.0482572056353092 0.000591267514050923  0.00124970888884837 7.26853369172263e-05 0.000744141087911268 0.000136276373800459
  0.0491343401372433 0.000598829587668637  0.00146871432116925 7.34279705253528e-05  0.00102708901683245 0.000126580205758479
  0.0499939285218716 0.000606145497403052  0.00186512172838329 8.19180721159338e-05  0.00125999865487369 0.000117906531300646
  0.0508885867893696 0.000613211498109669  0.00197151955834013 8.36812310880473e-05  0.00140573713325351 0.000109656785397102
  0.0517657063901424 0.000620650500842361  0.00190135358188772 8.17730586351444e-05  0.00142855307479219 0.000102258508006494
  0.0526252686977386 0.000627376992904414  0.00168571183425643 7.65024264474214e-05  0.00133572430365239 9.56076470624214e-05
  0.0535199157893658  0.00063493900416072  0.00149026748277925 7.12017039977657e-05  0.00114070510802302 8.92521417539288e-05
  0.0543970167636871 0.000642377461905683  0.00101919160786714 5.84124692356597e-05 0.000889591541609385 8.35262599502447e-05
  0.0552565567195415 0.000649447785784948 0.000669532787840451 4.45604930252853e-05 0.000628065170202877 7.83562708296505e-05
  0.0561511851847172 0.000657032058357616 0.000444601694381581 3.62046724616003e-05  0.00038301363678903 7.33948165717123e-05
  0.0570282563567162 0.000664200453351861 0.000353024851904974 3.20721683702409e-05 0.000204820891596783 6.89065122595215e-05
  0.0579053275287151 0.000671545854399414 0.000343469059877111 3.14522326212571e-05 0.000110579274356128 6.47573873160415e-05
  0.0587736181914806 0.000679133471732938 0.000355303701808095 3.17547817215904e-05 0.000107301094233401 6.09539868458352e-05
  0.0596506744623184 0.000686178235602736 0.000424256674475737 3.44222164405478e-05 0.000187745607714201  5.7392406404836e-05
  0.0605277232825756 0.000693518881041974 0.000640951908350017 4.19154669703222e-05 0.000333132507336229 5.40879887168445e-05
  0.0614047646522522  0.00070103333973493  0.00074850495641783 4.28807804564134e-05 0.000516109214282548 5.10188249853757e-05
  0.0622905604541302 0.000708009904326121 0.000980203974195854 4.89542480663111e-05 0.000707909692856246 4.81364683653676e-05
  0.0631675869226456 0.000715678966628141  0.00119740556975887 5.37867072483827e-05 0.000875190120146037 4.54825351980283e-05
  0.0640446022152901 0.000723066814772674  0.00124198883452724 5.42611894131576e-05  0.00099651233434943 4.30086511858533e-05
   0.064912848174572 0.000730096480891901  0.00116130115618497 5.22456193196324e-05  0.00105634932551345 4.07234722082447e-05
  0.0657898560166359 0.000737921664878336  0.00122660396862865  5.3173737861606e-05   0.0010503639549994 3.85678171579888e-05
   0.066666841506958  0.00074518254804415 0.000994472864193412 4.52486529047934e-05 0.000981648108970655 3.65532481867328e-05
  0.0675525963306427 0.000752480359924855 0.000816625585864185 4.08600072060814e-05 0.000860596081155282 3.46505207610602e-05
  0.0684295669198036 0.000760034603303461  0.00067121525807405 3.67279599744794e-05 0.000706982697429337 3.28873141871589e-05
  0.0693065375089646 0.000767287324823408 0.000511650212219263 3.19429497641675e-05 0.000539496695451842 3.12350491055868e-05
  0.0701659619808197 0.000774458003165694 0.000360448071712205 1.88789780763805e-05 0.000380343210529013 2.97156629574251e-05
   0.071051687002182 0.000782080028082661 0.000219385727339013 2.07251767255476e-05 0.000237450722235235 2.82455171862393e-05
  0.0719373971223831 0.000789402117976418 0.000117856008093044  1.5209738621799e-05 0.000127135240290545 2.68652274889875e-05
  0.0728143304586411 0.000796976518617845 4.49113054850439e-05 9.17985176380905e-06 5.52166391787497e-05 2.55808225511508e-05
  0.0736824870109558 0.000804196212523934 3.07564404066535e-05 7.75561229305819e-06 1.99230504248217e-05 2.43841872113567e-05
  0.0745594054460526 0.000811638431349451 5.38385989430198e-05 9.96187627144897e-06 1.50255041888291e-05 2.32458561159662e-05
  0.0754363089799881 0.000819362456806646 9.32270350674954e-05 1.28491421567439e-05 3.21279718253765e-05 2.21733288224428e-05
  0.0763132125139236 0.000826510480593948 0.000119982112965491 1.44355546618365e-05 6.08126705183615e-05 2.11620193649624e-05
   0.077190101146698 0.000834101876832364 0.000163327722784256 1.67149968226212e-05 9.10008077071056e-05 2.02078597415422e-05
  0.0780669748783112 0.000841696149895971  0.00014527695569122  1.4992190515263e-05 0.000114461271946871 1.93069823414527e-05
  0.0789438486099243 0.000848717746089813 0.000169335929526408 1.61216227464558e-05 0.000125903260559258 1.84558107134229e-05
  0.0798207074403763 0.000856318495169839 0.000138663443420514 1.45462131896124e-05 0.000123398912967665  1.7651146385423e-05
  0.0806975588202477 0.000863761294070845 0.000132969960064797 1.41496452801634e-05 0.000108306539930332 1.68899293472506e-05
  0.0815744027495384    0.000871092578245 0.000109289240616146 1.28058043625206e-05 8.45816868999472e-05 1.61693732789089e-05
  0.0824424624443054 0.000878782565605759 7.29167838547968e-05 1.04800102558354e-05 5.80483522996112e-05 1.54935811363057e-05
  0.0833280608057976 0.000886153142464454  5.8312007514453e-05 9.35476391403681e-06 3.39108948857551e-05 1.48401783821066e-05
  0.0842048674821853 0.000893470899653392 2.18217526345986e-05  5.7497125065106e-06 1.82669145656759e-05    1.42268788594e-05
   0.085081659257412 0.000901087578216995 2.45200197559309e-05 5.98955582130072e-06 1.45674451754596e-05 1.36449946023619e-05
  0.0859584584832191 0.000908274788203172  2.0693403475739e-05 5.51141492119189e-06 2.43338174012538e-05 1.30925910170314e-05
  0.0868352353572846 0.000915896338968064 3.36201568765498e-05 6.82020029846808e-06  4.6773818876832e-05 1.25679173488417e-05
  0.0877032354474068 0.000923463380627292 5.59028662017444e-05 8.58062637711205e-06 7.86168036580098e-05 1.20741737598408e-05
  0.0885887667536736 0.000930715925951694 9.23531590645298e-05 1.08794277735157e-05 0.000116470713372006 1.15952332389765e-05
   0.089465506374836 0.000938479515574741 0.000120440176256703 1.18809604896186e-05  0.00015403443124774 1.11442426954817e-05
  0.0903422459959984  0.00094570354232637 0.000160524430056844 1.36511702569059e-05 0.000186502393486592   1.071501657718e-05
  0.0912189707159996  0.00095317816732685 0.000184129470119455 1.45641764899068e-05 0.000209603468580561 1.03062685987465e-05
  0.0920956805348396 0.000960812365476226  0.00018965677773621 1.47001145666716e-05 0.000220515465155157 9.91686192095773e-06
  0.0929723829030991 0.000968021765127983 0.000192116972154004 1.47713018357375e-05 0.000218252180525493   9.545688524355e-06
  0.0938490852713585 0.000975659917121531 0.000180171997533516  1.4247637579424e-05 0.000203670991414591 9.19174991523096e-06
  0.0947169959545135  0.00098337703617953 0.000183021588680311  1.4310055270626e-05 0.000179566729682093  8.8574008612617e-06
  0.0956024304032326 0.000990516239200314  0.00016933801536594  1.3258957386061e-05 0.000148792349251764 8.53182552213513e-06
  0.0964790880680084 0.000998293572046514 0.000114120761497847 1.09190583508269e-05 0.000116452943349557 8.22410692840516e-06
  0.0973557382822037  0.00100551462500673 9.80866743429485e-05 1.00927391580315e-05 8.64671544794313e-05 7.93014539400219e-06
  0.0982323735952377  0.00101302767273551 7.99311756103345e-05 9.12105865679511e-06 6.23811902172853e-05 7.64922836022507e-06
  0.0991089940071106  0.00102067585731012 5.92693680935958e-05 7.84828988248073e-06 4.66315060021539e-05   7.380663021488e-06
  0.0999943614006042  0.00102809392444875  5.1990573640712e-05 7.34087270116221e-06 4.02647814085419e-05 7.12128106114677e-06
   0.100870959460735  0.00103574519464749 5.60879991771165e-05  7.3490429125113e-06 4.30723012448709e-05  6.8756102247173e-06
   0.101747542619705  0.00104326476870156 4.37232508765354e-05  6.4924014372383e-06 5.33565523659733e-05 6.64045633334115e-06
   0.102624125778675   0.0010504983721356 6.08220218437046e-05 7.58449646151373e-06 6.86244692972602e-05 6.41527574784784e-06
   0.103500671684742  0.00105815394140283  7.1629087841264e-05 8.15153945359985e-06 8.59017767448454e-05  6.1995834128991e-06
   0.104368470609188  0.00106573136544432 7.40467669361996e-05 8.27000730088405e-06 0.000102041438119596 5.99490789761578e-06
   0.105245001614094  0.00107312473518059  9.4703152563796e-05 9.28706575460304e-06 0.000114792397983844 5.79668538257078e-06
   0.106112755835056  0.00108072655484944 8.19531937988715e-05 8.59772463327082e-06 0.000122055606766057 5.60846379992329e-06
   0.106998033821583  0.00108802659614902 9.22598028564594e-05 8.77340288023936e-06 0.000122995263139808 5.42425262298365e-06
   0.107874527573586  0.00109553466400636 8.50499895496292e-05  8.4026448189769e-06 0.000117460225601494 5.24926621647843e-06
   0.108751013875008  0.00110319771744071 9.19354376425556e-05  8.7178986016174e-06 0.000106325215193591 5.08128915702221e-06
   0.109627477824688  0.00111044536387495 6.09554089119924e-05 7.12511225233276e-06  9.1067644355295e-05 4.91998345500086e-06
   0.110503941774368  0.00111811072018409 6.58174227430142e-05 7.36346486114459e-06 7.35223737625215e-05 4.76503876236044e-06
   0.111380375921726  0.00112590815999405 5.35579492332509e-05 6.65669164982133e-06 5.55963793267978e-05 4.61615494583108e-06
   0.112256810069084  0.00113302920795754 3.28690729363148e-05 5.28923044088448e-06 3.89826680099964e-05 4.47304250871765e-06
     0.1131332218647  0.00114082852609649 1.87380830357203e-05 4.13129908580459e-06 2.49645230556659e-05 4.33544441794829e-06
   0.114009626209736  0.00114823618867361 1.57250985989185e-05  3.6734132953177e-06 1.42802832440086e-05 4.20310015148664e-06
    0.11488601565361  0.00115562353367042 7.30427982594408e-06  2.7151555353097e-06 7.11290361638154e-06 4.07577326259037e-06
   0.115762390196323  0.00116329484994933 8.02776743157335e-06 2.77349027781904e-06 3.14844559690525e-06  3.9532396783253e-06
   0.116629995405674  0.00117062671814797 3.13658091869862e-06 2.02458325011341e-06 1.70931035212233e-06 3.83643447228281e-06
   0.117515094578266  0.00117822746013839 5.96581174413439e-06 2.43631733561758e-06 1.90904643859513e-06 3.72169580546767e-06
   0.118391431868076  0.00118590135332229 5.96450276637598e-06 2.40731404346335e-06 2.87290070623276e-06 3.61229942465007e-06
   0.119267746806145  0.00119329445221717 1.90786280747528e-06 1.71271626656519e-06 3.84463459808797e-06 3.50688709909408e-06
   0.120144046843052  0.00120096998116906 4.67843742085898e-06 2.17806904325899e-06 4.32917768070206e-06  3.4052983103953e-06
   0.121020339429379  0.00120836517682758 3.37169477605743e-06 1.95019678310511e-06 4.13143168938411e-06 3.30736372180626e-06
   0.121896602213383  0.00121591279623816 4.10426466311231e-06 2.06403008841217e-06 3.34805516663651e-06 3.21293133455471e-06
   0.122772864997387  0.00122371996534304 1.01007127662568e-05 2.86244812821596e-06 2.30743390200665e-06 3.12184875334721e-06
   0.123649097979069  0.00123073031395545 7.21579970157679e-06 2.34183054139767e-06 1.47008404053564e-06  3.0339724293414e-06
   0.124525330960751  0.00123853888605099 4.74361055303844e-06 1.99573761750304e-06 1.31702319608769e-06 2.94917239187084e-06
   0.125401541590691  0.00124608968357302 5.81084431050273e-06 2.13938022288213e-06 2.23783427754213e-06 2.86731735993879e-06
   0.126277759671211  0.00125336205047286 7.49181371518725e-06 2.35804633439767e-06 4.44920893309223e-06  2.7882826197676e-06
   0.127153947949409  0.00126117225520357 6.75272738439492e-06 2.25882811351574e-06 7.94923250069226e-06 2.71195898459433e-06
   0.128030106425285  0.00126885402705082 1.35003931943079e-05 2.99390484980478e-06  1.2507996366334e-05  2.6382327090057e-06
          0.12890625  0.00127600057417707 1.39572933772924e-05 3.03990365068674e-06 1.77091909742144e-05 2.56699554048219e-06
   0.129782378673553  0.00128381216303727 1.99503309389559e-05 3.54794321868724e-06 2.30173889383037e-05 2.49815185402933e-06
   0.130658507347107   0.0012912175818394 2.77030443319839e-05 4.12210091054756e-06  2.7863916865665e-05  2.4316005895703e-06
   0.131534621119499   0.0012987736199285 3.66979148601088e-05 4.70722021587896e-06 3.17367727599097e-05  2.3672537848045e-06
   0.132410690188408  0.00130643687781077 3.19439735162095e-05 4.38526257415631e-06  3.4258673506644e-05  2.3050262377918e-06
   0.133286759257317  0.00131373801857224 3.83156575770588e-05 4.74275084534106e-06 3.52414735522656e-05 2.24482976052477e-06
   0.134162828326225  0.00132127459887866 4.63157468337901e-05  4.9870738721975e-06 3.47026047435863e-05 2.18658805014429e-06
    0.13503885269165  0.00132883313996398 4.75821572630124e-05 5.03051214347487e-06 3.28582574243653e-05 2.13022674009668e-06
