# intensity: 0.950033454549075
# background: 0
#           Q (1/A)             dQ (1/A)                    R                   dR               theory              fresnel
  0.0100976740941405 0.000533690239791818    0.965405862123547   0.0102637374386372    0.947690875366558     0.57148204671398
  0.0105407405644655 0.000535168880132434    0.947539303417396   0.0100907559016562    0.944195224577657    0.448989560208696
  0.0109749650582671 0.000536633520667449    0.940726447667846   0.0100311390863223    0.939128852988125    0.316985864497794
  0.0114136096090078 0.000538128503880432    0.943196880160382   0.0100146439767608    0.932742463221994      0.2063993287467
  0.0118522550910711 0.000539638854389279    0.927143922545752   0.0099112817796712    0.925039788513712    0.136760758658324
  0.0122908987104893 0.000541164493700492    0.929971594893802  0.00994397220310285    0.915520117861326   0.0973649214019699
  0.0127295413985848 0.000542705255738809    0.911481053038853  0.00975472636838775    0.903462446829281   0.0735266701534741
  0.0131681831553578 0.000544260991391924    0.903875419142294  0.00974313481596232    0.887993560333382    0.057635216144893
  0.0136068286374211 0.000545831621115291    0.881864959606714  0.00952619266550613    0.868040054149533   0.0463171516682992
  0.0140454713255167 0.000547416985679648    0.860106135399623   0.0093703250032958    0.842290544714994   0.0379200910820431
  0.0144841112196445 0.000549016962254066    0.818651658181809  0.00904447099688934    0.809203929940222   0.0315068426977792
  0.0149271506816149 0.000550647711629436    0.773732069419352  0.00867651929476005    0.766638529677141   0.0264534253608705
  0.0153613947331905 0.000552260285656212    0.706975474841862   0.0081041338650115    0.714459662145371   0.0225148436781289
  0.0158000346273184 0.000553903360897636    0.647539433033302  0.00761512167973735    0.650277250653587   0.0193003219435395
  0.0162386763840914 0.000555560530860622    0.566279842779695  0.00689128770447634    0.574815958292901   0.0166728763468617
  0.0166773162782192 0.000557231666253745    0.484236335710795  0.00624118243672319    0.490236226532011   0.0145016500555818
  0.0171159543097019 0.000558916686025578    0.396957214183256   0.0054860434201914    0.400946721629911   0.0126901149402936
  0.0175590254366398 0.000560632652729373    0.309695783755403  0.00466202570344617    0.312381978256307   0.0111517499053037
  0.0179932322353125 0.000562327759368179    0.239471483217171  0.00400809339223876    0.234017849192137   0.0098735493498492
  0.0184362512081861 0.000563949998315846    0.178618276022526  0.00334804371322293    0.168546617507212  0.00876025237914371
  0.0188705064356327 0.000564652698815335    0.124307715934363  0.00271923713701844    0.121729981425955  0.00782264502169827
  0.0193091444671154 0.000565378162562994    0.099045092890099  0.00241466270254372   0.0921413982335018  0.00700414992369456
  0.0197433866560459 0.000566111848551648   0.0857805403277229  0.00222146639418726   0.0780806718626452  0.00630023515231907
  0.0201908145099878 0.000566883795885761   0.0783219314864082  0.00212390079744471   0.0755808434712084   0.0056679090225819
  0.0206250473856926 0.000567648556002464   0.0808119943773635  0.00216736031217497   0.0807681874739659     0.00513083623813
   0.021068112924695 0.000568444458866782   0.0894066425074025  0.00227521960728526   0.0902081742386899  0.00464888437767965
  0.0214979443699121 0.000569231783319703    0.097453082634656  0.00239121167788489    0.100716331262709  0.00423690964862765
  0.0219409484416246 0.000607396822016123    0.104520295990221  0.00184987949665795    0.110900563511582  0.00386638833872425
  0.0228182133287191 0.000613392905777923    0.120914187940497   0.0020000825917118    0.126168360092095  0.00323955657675417
  0.0237042475491762  0.00061943310347491    0.125107770984666  0.00200515516963903    0.132427096744918  0.00273008106707079
  0.0245815049856901 0.000625501566004826    0.127937447833639  0.00201111492601274     0.12950654045117  0.00232187228361769
  0.0254412107169628 0.000631703825557638    0.125372898333125  0.00196419145979181    0.119395421432707  0.00199468135174917
   0.026336008682847 0.000637537423699531    0.109628801870852  0.00178376191777833    0.103558708247635  0.00171405626704178
  0.0272044837474823 0.000643668207517695   0.0908306266404736  0.00157867158254206   0.0853597521758761  0.00148798378154654
  0.0280729588121176 0.000650176762415163   0.0688879412061204  0.00133144198619139    0.066534829697998  0.00129860282154389
  0.0289677418768406 0.000655936589569329   0.0513862351439608  0.00112015803421801   0.0483851651221799  0.00113433468598972
  0.0298362094908953 0.000662129829271877   0.0347661635872564 0.000900143373202342   0.0333243182584237 0.000999297312569905
  0.0307134445756674  0.00066876465669069   0.0214428045575305 0.000688761981540047   0.0214218260715708 0.000882968873936391
  0.0315994471311569 0.000674778290261356   0.0124354095108194 0.000513871288900191    0.012932796983071 0.000782328126866138
  0.0324766784906387  0.00068146729562794  0.00649018178275457 0.000325691003969469  0.00771803720302763 0.000696558506270362
  0.0333363525569439 0.000687900164581163  0.00516285783669645 0.000287718155655836   0.0050951108856542 0.000623736884890979
  0.0342135690152645 0.000693755737233724  0.00547481016645729 0.000293199497735326  0.00421604613005505 0.000559077412155477
   0.035099558532238 0.000700390322121676  0.00614042989877098 0.000307923166729283  0.00441922619084238 0.000502124866984159
  0.0359592288732529  0.00070658418060356  0.00732290997190757 0.000334223514665322  0.00505570182401543  0.00045370642975565
  0.0368452034890652 0.000713238234708536  0.00812667382937218 0.000348783035923043  0.00570318065819272 0.000409788379468659
  0.0377136319875717 0.000719859175245777  0.00727661329268102 0.000296142901944146  0.00604963545115207 0.000371824892478977
  0.0385908335447311 0.000726008740592854   0.0071188405441661 0.000290757680201921  0.00598639839806917 0.000337870757145301
  0.0394680202007294 0.000732547111166607  0.00626241476318634 0.000269837975553018  0.00551092201984577 0.000307734562561661
  0.0403539836406708 0.000739149740997941  0.00502546715012472 0.000240581377975932  0.00470424241280295 0.000280651749321628
  0.0412311665713787 0.000745702351038889  0.00377533733367094 0.000205620298735488  0.00372033590032217 0.000256727193626129
  0.0420995689928532 0.000752427166737045  0.00257617757178708 0.000167995370999135  0.00271021174454652 0.000235520506727603
   0.042994286864996 0.000758967418433166  0.00166466190162913 0.000133638079914426  0.00176579504765897 0.000215924114159863
  0.0438714548945427 0.000765579520762087 0.000581164528250056 4.25111267092154e-05  0.00103066552946911 0.000198660027474508
  0.0447310693562031 0.000772315938135829 0.000297145172768154 3.72491005697562e-05 0.000542711501871955 0.000183395457852037
   0.045625776052475 0.000778555023525222 0.000174647432787976 2.86810146622228e-05 0.000283867077932448 0.000169040129907604
  0.0464853830635548  0.00078532641840251 0.000436095451457751 4.40402651666991e-05   0.0002438004677851 0.000156554249322586
  0.0473625250160694 0.000792203235786434 0.000743457785767278 5.67291496211074e-05 0.000357516368567955 0.000144987027701483
  0.0482572056353092 0.000798664093903987  0.00124970888884837 7.26853369172263e-05 0.000563096353852558 0.000134271756709471
  0.0491343401372433   0.0008057387044475  0.00146871432116925 7.34279705253528e-05 0.000783615241932851 0.000124714298148839
  0.0499939285218716 0.000812572584462486  0.00186512172838329 8.19180721159338e-05 0.000963318274849138 0.000116163820641226
  0.0508885867893696 0.000819084472079011  0.00197151955834013 8.36812310880473e-05  0.00107362484918414 0.000108031608110731
  0.0517657063901424 0.000826039829459309  0.00190135358188772 8.17730586351444e-05  0.00108863781624666 0.000100740341269206
  0.0526252686977386 0.000832237071634262  0.00168571183425643 7.65024264474214e-05  0.00101667976889499 9.41848015537652e-05
  0.0535199157893658 0.000839313840552925  0.00149026748277925 7.12017039977657e-05 0.000870415596632079 8.79209448806796e-05
  0.0543970167636871 0.000846284716095465  0.00101919160786714 5.84124692356597e-05 0.000686797167987364 8.22785689383565e-05
  0.0552565567195415 0.000852878031334744 0.000669532787840451 4.45604930252853e-05 0.000501148018596117 7.71834838821161e-05
  0.0561511851847172 0.000859995768823972 0.000444601694381581 3.62046724616003e-05 0.000334411905202534 7.22942061072267e-05
  0.0570282563567162 0.000866682561319497 0.000353024851904974 3.20721683702409e-05 0.000222219088247716 6.78716094051625e-05
  0.0579053275287151  0.00087357092109858 0.000343469059877111 3.14522326212571e-05 0.000175461194517698 6.37832236075327e-05
  0.0587736181914806 0.000880746204148436 0.000355303701808095 3.17547817215904e-05 0.000196494533194298 6.00357912730245e-05
  0.0596506744623184 0.000887310407611256 0.000424256674475737 3.44222164405478e-05 0.000277717766710606 5.65265119726124e-05
  0.0605277232825756   0.0008942083706707 0.000640951908350017 4.19154669703222e-05 0.000402694627251936 5.32708459398155e-05
  0.0614047646522522 0.000901304588896009  0.00074850495641783 4.28807804564134e-05 0.000549481360458543 5.02469912254715e-05
  0.0622905604541302 0.000907794393901286 0.000980203974195854 4.89542480663111e-05 0.000695955588109947 4.74080478201236e-05
  0.0631675869226456 0.000915072396030823  0.00119740556975887 5.37867072483827e-05 0.000817490408152305 4.47925890258628e-05
  0.0640446022152901 0.000922042064509528  0.00124198883452724 5.42611894131576e-05 0.000898942511726956 4.23554482753452e-05
   0.064912848174572 0.000928629849393115  0.00116130115618497 5.22456193196324e-05 0.000930311872761517 4.01041997491943e-05
  0.0657898560166359 0.000936095953830276  0.00122660396862865  5.3173737861606e-05 0.000909635814123251 3.79806378209343e-05
   0.066666841506958 0.000942937863106087 0.000994472864193412 4.52486529047934e-05 0.000840835631599446 3.59963808233261e-05
  0.0675525963306427  0.00094981285281821 0.000816625585864185 4.08600072060814e-05 0.000732918496003042 3.41220919974803e-05
  0.0684295669198036 0.000956990642272134  0.00067121525807405 3.67279599744794e-05 0.000601896320897335 3.23853105323689e-05
  0.0693065375089646  0.00096383654493354 0.000511650212219263 3.19429497641675e-05 0.000462143838813153 3.07578465394659e-05
  0.0701659619808197 0.000970619911129041 0.000360448071712205 1.88789780763805e-05 0.000330696232377716 2.92612521911188e-05
   0.071051687002182 0.000977873810296206 0.000219385727339013 2.07251767255476e-05 0.000212847297441023 2.78131680961949e-05
  0.0719373971223831 0.000984797331705755 0.000117856008093044  1.5209738621799e-05 0.000121032558203081 2.64536649070211e-05
  0.0728143304586411 0.000992018874915516 4.49113054850439e-05 9.17985176380905e-06 5.94467808015157e-05 2.51886483795226e-05
  0.0736824870109558 0.000998860877451218 3.07564404066535e-05 7.75561229305819e-06 2.65083155544593e-05 2.40100576146522e-05
  0.0745594054460526  0.00100594292829668 5.38385989430198e-05 9.96187627144897e-06 1.73063328275872e-05 2.28889129748461e-05
  0.0754363089799881  0.00101334351394297 9.32270350674954e-05 1.28491421567439e-05 2.55725676715371e-05 2.18326121589358e-05
  0.0763132125139236  0.00102010499044384 0.000119982112965491 1.44355546618365e-05  4.3481135027434e-05 2.08366046523242e-05
   0.077190101146698  0.00102736527312186 0.000163327722784256 1.67149968226212e-05 6.34782996128565e-05 1.98969044499766e-05
  0.0780669748783112   0.0010346325624246  0.00014527695569122  1.4992190515263e-05  7.9360790460472e-05 1.90096978276426e-05
  0.0789438486099243  0.00104126414307163 0.000169335929526408 1.61216227464558e-05  8.7082504974481e-05 1.81714362768915e-05
  0.0798207074403763  0.00104854607582303 0.000138663443420514 1.45462131896124e-05 8.50617717360859e-05 1.73790042215812e-05
  0.0806975588202477  0.00105565524798749 0.000132969960064797 1.41496452801634e-05 7.41550092135189e-05 1.66293659166412e-05
  0.0815744027495384   0.0010626434504927 0.000109289240616146 1.28058043625206e-05 5.71668024956578e-05 1.59197816116762e-05
  0.0824424624443054  0.00107004767655218 7.29167838547968e-05 1.04800102558354e-05 3.83343011744771e-05 1.52542885186744e-05
  0.0833280608057976  0.00107707480475681  5.8312007514453e-05 9.35476391403681e-06 2.15547284569882e-05 1.46108421999326e-05
  0.0842048674821853  0.00108405830568283 2.18217526345986e-05  5.7497125065106e-06  1.1415164777626e-05 1.40068978778799e-05
   0.085081659257412  0.00109137898760955 2.45200197559309e-05 5.98955582130072e-06 1.06516229348885e-05 1.34339066972258e-05
  0.0859584584832191  0.00109822337150812  2.0693403475739e-05 5.51141492119189e-06 2.05934446783425e-05 1.28899377003577e-05
  0.0868352353572846  0.00110555607372367 3.36201568765498e-05 6.82020029846808e-06  4.0847113932713e-05 1.23733016479696e-05
  0.0877032354474068  0.00111284283129322 5.59028662017444e-05 8.58062637711205e-06 6.90463215798105e-05 1.18871152420367e-05
  0.0885887667536736  0.00111975814720578 9.23531590645298e-05 1.08794277735157e-05 0.000102817319783238 1.14155005433971e-05
   0.089465506374836  0.00112725892974063 0.000120440176256703 1.18809604896186e-05 0.000137159241047431 1.09714272808654e-05
  0.0903422459959984  0.00113416037082245 0.000160524430056844 1.36511702569059e-05 0.000168218950616963  1.0548751007885e-05
  0.0912189707159996  0.00114134463924821 0.000184129470119455 1.45641764899068e-05 0.000192309657851327 1.01462703280258e-05
  0.0920956805348396   0.0011487100320497  0.00018965677773621 1.47001145666716e-05 0.000206736378299352 9.76284626513378e-06
  0.0929723829030991   0.0011556041862394 0.000192116972154004 1.47713018357375e-05 0.000210139432569178 9.39736872456834e-06
  0.0938490852713585   0.0011629798197342 0.000180171997533516  1.4247637579424e-05 0.000202576905309202  9.0488720657624e-06
  0.0947169959545135  0.00117045784801294 0.000183021588680311  1.4310055270626e-05 0.000185703295763554 8.71965656275718e-06
  0.0956024304032326   0.0011772709123536  0.00016933801536594  1.3258957386061e-05 0.000161429607588943 8.39909111017422e-06
  0.0964790880680084  0.00118481026276909 0.000114120761497847 1.09190583508269e-05 0.000133593703482592 8.09615280119486e-06
  0.0973557382822037  0.00119173167455986 9.80866743429485e-05 1.00927391580315e-05 0.000105438179760787 7.80671934338893e-06
  0.0982323735952377  0.00119898158346584 7.99311756103345e-05 9.12105865679511e-06 8.01364502785336e-05   7.530132035507e-06
  0.0991089940071106  0.00120638488535909 5.92693680935958e-05 7.84828988248073e-06 6.02166335712738e-05 7.26570783780597e-06
  0.0999943614006042  0.00121352291321814  5.1990573640712e-05 7.34087270116221e-06 4.71691875719907e-05 7.01032734656499e-06
   0.100870959460735  0.00122093484979268 5.60879991771165e-05  7.3490429125113e-06 4.17761742013604e-05 6.76845022456468e-06
   0.101747542619705  0.00122820245641827 4.37232508765354e-05  6.4924014372383e-06 4.33267395881543e-05 6.53692711126762e-06
   0.102624125778675  0.00123515374168012 6.08220218437046e-05 7.58449646151373e-06   5.039775131744e-05 6.31522497776465e-06
   0.103500671684742  0.00124257798344703  7.1629087841264e-05 8.15153945359985e-06 6.09591532160024e-05 6.10286773181567e-06
   0.104368470609188  0.00124992852192201 7.40467669361996e-05 8.27000730088405e-06 7.25780644222539e-05 5.90135934192183e-06
   0.105245001614094  0.00125706529249346  9.4703152563796e-05 9.28706575460304e-06 8.32564014857669e-05 5.70620229792563e-06
   0.106112755835056  0.00126444768970057 8.19531937988715e-05 8.59772463327082e-06 9.09289433902242e-05 5.52089421401467e-06
   0.106998033821583  0.00127147425996328 9.22598028564594e-05 8.77340288023936e-06  9.4473111089338e-05 5.33953342643958e-06
   0.107874527573586  0.00127874589682595 8.50499895496292e-05  8.4026448189769e-06 9.31185132569753e-05 5.16725798389702e-06
   0.108751013875008  0.00128619240872038 9.19354376425556e-05  8.7178986016174e-06 8.70562918957486e-05 5.00188356818106e-06
   0.109627477824688  0.00129317855016873 6.09554089119924e-05 7.12511225233276e-06 7.70575623263489e-05  4.8430783087694e-06
   0.110503941774368   0.0013006320469513 6.58174227430142e-05 7.36346486114459e-06 6.43495673313468e-05 4.69053557986112e-06
   0.111380375921726  0.00130823470006068 5.35579492332509e-05 6.65669164982133e-06  5.0415346413983e-05 4.54396470201577e-06
   0.112256810069084   0.0013150865946853 3.28690729363148e-05 5.28923044088448e-06 3.67461341081367e-05 4.40306964694111e-06
     0.1131332218647  0.00132269552877333 1.87380830357203e-05 4.13129908580459e-06  2.4641420456082e-05  4.2676093740886e-06
   0.114009626209736  0.00132987068700882 1.57250985989185e-05  3.6734132953177e-06 1.50363596457673e-05  4.1373200865899e-06
    0.11488601565361  0.00133702534318834 7.30427982594408e-06  2.7151555353097e-06 8.42032238716591e-06 4.01197108599504e-06
   0.115762390196323  0.00134449792260981 8.02776743157335e-06 2.77349027781904e-06 4.81539132139353e-06 3.89134211245906e-06
   0.116629995405674  0.00135160551649666 3.13658091869862e-06 2.02458325011341e-06 3.82389132433056e-06 3.77635343342339e-06
   0.117515094578266  0.00135899302170489 5.96581174413439e-06 2.43631733561758e-06 4.75349875743616e-06 3.66339744157492e-06
   0.118391431868076  0.00136647429131805 5.96450276637598e-06 2.40731404346335e-06 6.74581879084729e-06 3.55569228758683e-06
   0.119267746806145  0.00137364535891992 1.90786280747528e-06 1.71271626656519e-06 8.94489469915705e-06 3.45191958572498e-06
   0.120144046843052   0.0013811322105264 4.67843742085898e-06 2.17806904325899e-06 1.06324622920282e-05 3.35191167701006e-06
   0.121020339429379  0.00138830941933849 3.37169477605743e-06 1.95019678310511e-06 1.13347148550185e-05 3.25550108699531e-06
   0.121896602213383  0.00139565785414617 4.10426466311231e-06 2.06403008841217e-06 1.08764025006547e-05 3.16253992704366e-06
   0.122772864997387  0.00140329631828226 1.01007127662568e-05 2.86244812821596e-06 9.38636864285859e-06 3.07287495432066e-06
   0.123649097979069  0.00141005173990491 7.21579970157679e-06 2.34183054139767e-06   7.250410578718e-06 2.98636677137607e-06
   0.124525330960751  0.00141769528700867 4.74361055303844e-06 1.99573761750304e-06  5.0225048403688e-06 2.90289873192638e-06
   0.125401541590691  0.00142505435026554 5.81084431050273e-06 2.13938022288213e-06 3.31493099689132e-06 2.82231970132108e-06
   0.126277759671211  0.00143210612023709 7.49181371518725e-06 2.35804633439767e-06  2.6846940850352e-06  2.7445169909843e-06
   0.127153947949409  0.00143975646287804 6.75272738439492e-06 2.25882811351574e-06 3.53680964203278e-06 2.66938404353975e-06
   0.128030106425285  0.00144726589981187 1.35003931943079e-05 2.99390484980478e-06 6.04481339989073e-06 2.59680807128402e-06
          0.12890625  0.00145418334667435 1.39572933772924e-05 3.03990365068674e-06 1.01235566277137e-05 2.52668208101329e-06
   0.129782378673553  0.00146184001867053 1.99503309389559e-05 3.54794321868724e-06 1.54425625297625e-05 2.45891317776886e-06
   0.130658507347107  0.00146904787952389 2.77030443319839e-05 4.12210091054756e-06 2.14638589908454e-05  2.3934007524608e-06
   0.131534621119499  0.00147642433340615 3.66979148601088e-05 4.70722021587896e-06 2.75298377105126e-05 2.33005875611537e-06
   0.132410690188408  0.00148392119827116 3.19439735162095e-05 4.38526257415631e-06 3.29541206381247e-05 2.26880306913483e-06
   0.133286759257317  0.00149101834012396 3.83156575770588e-05 4.74275084534106e-06 3.71235049379837e-05 2.20954725015496e-06
   0.134162828326225  0.00149837790131857 4.63157468337901e-05  4.9870738721975e-06 3.95775108089911e-05 2.15221534223024e-06
    0.13503885269165  0.00150576332991343 4.75821572630124e-05 5.03051214347487e-06 4.00752554028876e-05 2.09673494531472e-06
