#      z (A) rho (1e-6/A2) irho (1e-6/A2) rhoM (1e-6/A2) theta (degrees)
-169.33044815   2.14915843   0.00000000   0.00000000 270.00000000
-169.23044815   2.14916519   0.00000000   0.00000000 270.00000000
-169.13044815   2.14917198   0.00000000   0.00000000 270.00000000
-169.03044815   2.14917881   0.00000000   0.00000000 270.00000000
-168.93044815   2.14918568   0.00000000   0.00000000 270.00000000
-168.83044815   2.14919258   0.00000000   0.00000000 270.00000000
-168.73044815   2.14919951   0.00000000   0.00000000 270.00000000
-168.63044815   2.14920649   0.00000000   0.00000000 270.00000000
-168.53044815   2.14921350   0.00000000   0.00000000 270.00000000
-168.43044815   2.14922055   0.00000000   0.00000000 270.00000000
-168.33044815   2.14922764   0.00000000   0.00000000 270.00000000
-168.23044815   2.14923476   0.00000000   0.00000000 270.00000000
-168.13044815   2.14924192   0.00000000   0.00000000 270.00000000
-168.03044815   2.14924912   0.00000000   0.00000000 270.00000000
-167.93044815   2.14925636   0.00000000   0.00000000 270.00000000
-167.83044815   2.14926363   0.00000000   0.00000000 270.00000000
-167.73044815   2.14927095   0.00000000   0.00000000 270.00000000
-167.63044815   2.14927830   0.00000000   0.00000000 270.00000000
-167.53044815   2.14928569   0.00000000   0.00000000 270.00000000
-167.43044815   2.14929312   0.00000000   0.00000000 270.00000000
-167.33044815   2.14930059   0.00000000   0.00000000 270.00000000
-167.23044815   2.14930810   0.00000000   0.00000000 270.00000000
-167.13044815   2.14931565   0.00000000   0.00000000 270.00000000
-167.03044815   2.14932324   0.00000000   0.00000000 270.00000000
-166.93044815   2.14933086   0.00000000   0.00000000 270.00000000
-166.83044815   2.14933853   0.00000000   0.00000000 270.00000000
-166.73044815   2.14934624   0.00000000   0.00000000 270.00000000
-166.63044815   2.14935399   0.00000000   0.00000000 270.00000000
-166.53044815   2.14936178   0.00000000   0.00000000 270.00000000
-166.43044815   2.14936961   0.00000000   0.00000000 270.00000000
-166.33044815   2.14937748   0.00000000   0.00000000 270.00000000
-166.23044815   2.14938539   0.00000000   0.00000000 270.00000000
-166.13044815   2.14939335   0.00000000   0.00000000 270.00000000
-166.03044815   2.14940134   0.00000000   0.00000000 270.00000000
-165.93044815   2.14940938   0.00000000   0.00000000 270.00000000
-165.83044815   2.14941746   0.00000000   0.00000000 270.00000000
-165.73044815   2.14942558   0.00000000   0.00000000 270.00000000
-165.63044815   2.14943374   0.00000000   0.00000000 270.00000000
-165.53044815   2.14944195   0.00000000   0.00000000 270.00000000
-165.43044815   2.14945020   0.00000000   0.00000000 270.00000000
-165.33044815   2.14945849   0.00000000   0.00000000 270.00000000
-165.23044815   2.14946683   0.00000000   0.00000000 270.00000000
-165.13044815   2.14947520   0.00000000   0.00000000 270.00000000
-165.03044815   2.14948363   0.00000000   0.00000000 270.00000000
-164.93044815   2.14949209   0.00000000   0.00000000 270.00000000
-164.83044815   2.14950060   0.00000000   0.00000000 270.00000000
-164.73044815   2.14950916   0.00000000   0.00000000 270.00000000
-164.63044815   2.14951775   0.00000000   0.00000000 270.00000000
-164.53044815   2.14952640   0.00000000   0.00000000 270.00000000
-164.43044815   2.14953508   0.00000000   0.00000000 270.00000000
-164.33044815   2.14954382   0.00000000   0.00000000 270.00000000
-164.23044815   2.14955259   0.00000000   0.00000000 270.00000000
-164.13044815   2.14956142   0.00000000   0.00000000 270.00000000
-164.03044815   2.14957029   0.00000000   0.00000000 270.00000000
-163.93044815   2.14957920   0.00000000   0.00000000 270.00000000
-163.83044815   2.14958816   0.00000000   0.00000000 270.00000000
-163.73044815   2.14959717   0.00000000   0.00000000 270.00000000
-163.63044815   2.14960622   0.00000000   0.00000000 270.00000000
-163.53044815   2.14961532   0.00000000   0.00000000 270.00000000
-163.43044815   2.14962446   0.00000000   0.00000000 270.00000000
-163.33044815   2.14963366   0.00000000   0.00000000 270.00000000
-163.23044815   2.14964290   0.00000000   0.00000000 270.00000000
-163.13044815   2.14965219   0.00000000   0.00000000 270.00000000
-163.03044815   2.14966152   0.00000000   0.00000000 270.00000000
-162.93044815   2.14967091   0.00000000   0.00000000 270.00000000
-162.83044815   2.14968034   0.00000000   0.00000000 270.00000000
-162.73044815   2.14968982   0.00000000   0.00000000 270.00000000
-162.63044815   2.14969935   0.00000000   0.00000000 270.00000000
-162.53044815   2.14970892   0.00000000   0.00000000 270.00000000
-162.43044815   2.14971855   0.00000000   0.00000000 270.00000000
-162.33044815   2.14972823   0.00000000   0.00000000 270.00000000
-162.23044815   2.14973795   0.00000000   0.00000000 270.00000000
-162.13044815   2.14974773   0.00000000   0.00000000 270.00000000
-162.03044815   2.14975755   0.00000000   0.00000000 270.00000000
-161.93044815   2.14976742   0.00000000   0.00000000 270.00000000
-161.83044815   2.14977735   0.00000000   0.00000000 270.00000000
-161.73044815   2.14978732   0.00000000   0.00000000 270.00000000
-161.63044815   2.14979735   0.00000000   0.00000000 270.00000000
-161.53044815   2.14980743   0.00000000   0.00000000 270.00000000
-161.43044815   2.14981756   0.00000000   0.00000000 270.00000000
-161.33044815   2.14982774   0.00000000   0.00000000 270.00000000
-161.23044815   2.14983797   0.00000000   0.00000000 270.00000000
-161.13044815   2.14984825   0.00000000   0.00000000 270.00000000
-161.03044815   2.14985859   0.00000000   0.00000000 270.00000000
-160.93044815   2.14986898   0.00000000   0.00000000 270.00000000
-160.83044815   2.14987942   0.00000000   0.00000000 270.00000000
-160.73044815   2.14988991   0.00000000   0.00000000 270.00000000
-160.63044815   2.14990046   0.00000000   0.00000000 270.00000000
-160.53044815   2.14991106   0.00000000   0.00000000 270.00000000
-160.43044815   2.14992171   0.00000000   0.00000000 270.00000000
-160.33044815   2.14993242   0.00000000   0.00000000 270.00000000
-160.23044815   2.14994318   0.00000000   0.00000000 270.00000000
-160.13044815   2.14995399   0.00000000   0.00000000 270.00000000
-160.03044815   2.14996486   0.00000000   0.00000000 270.00000000
-159.93044815   2.14997579   0.00000000   0.00000000 270.00000000
-159.83044815   2.14998677   0.00000000   0.00000000 270.00000000
-159.73044815   2.14999780   0.00000000   0.00000000 270.00000000
-159.63044815   2.15000889   0.00000000   0.00000000 270.00000000
-159.53044815   2.15002004   0.00000000   0.00000000 270.00000000
-159.43044815   2.15003124   0.00000000   0.00000000 270.00000000
-159.33044815   2.15004250   0.00000000   0.00000000 270.00000000
-159.23044815   2.15005381   0.00000000   0.00000000 270.00000000
-159.13044815   2.15006519   0.00000000   0.00000000 270.00000000
-159.03044815   2.15007661   0.00000000   0.00000000 270.00000000
-158.93044815   2.15008810   0.00000000   0.00000000 270.00000000
-158.83044815   2.15009964   0.00000000   0.00000000 270.00000000
-158.73044815   2.15011124   0.00000000   0.00000000 270.00000000
-158.63044815   2.15012290   0.00000000   0.00000000 270.00000000
-158.53044815   2.15013462   0.00000000   0.00000000 270.00000000
-158.43044815   2.15014639   0.00000000   0.00000000 270.00000000
-158.33044815   2.15015823   0.00000000   0.00000000 270.00000000
-158.23044815   2.15017012   0.00000000   0.00000000 270.00000000
-158.13044815   2.15018207   0.00000000   0.00000000 270.00000000
-158.03044815   2.15019408   0.00000000   0.00000000 270.00000000
-157.93044815   2.15020615   0.00000000   0.00000000 270.00000000
-157.83044815   2.15021829   0.00000000   0.00000000 270.00000000
-157.73044815   2.15023048   0.00000000   0.00000000 270.00000000
-157.63044815   2.15024273   0.00000000   0.00000000 270.00000000
-157.53044815   2.15025504   0.00000000   0.00000000 270.00000000
-157.43044815   2.15026742   0.00000000   0.00000000 270.00000000
-157.33044815   2.15027985   0.00000000   0.00000000 270.00000000
-157.23044815   2.15029235   0.00000000   0.00000000 270.00000000
-157.13044815   2.15030491   0.00000000   0.00000000 270.00000000
-157.03044815   2.15031753   0.00000000   0.00000000 270.00000000
-156.93044815   2.15033021   0.00000000   0.00000000 270.00000000
-156.83044815   2.15034296   0.00000000   0.00000000 270.00000000
-156.73044815   2.15035576   0.00000000   0.00000000 270.00000000
-156.63044815   2.15036864   0.00000000   0.00000000 270.00000000
-156.53044815   2.15038157   0.00000000   0.00000000 270.00000000
-156.43044815   2.15039457   0.00000000   0.00000000 270.00000000
-156.33044815   2.15040763   0.00000000   0.00000000 270.00000000
-156.23044815   2.15042076   0.00000000   0.00000000 270.00000000
-156.13044815   2.15043395   0.00000000   0.00000000 270.00000000
-156.03044815   2.15044721   0.00000000   0.00000000 270.00000000
-155.93044815   2.15046053   0.00000000   0.00000000 270.00000000
-155.83044815   2.15047392   0.00000000   0.00000000 270.00000000
-155.73044815   2.15048737   0.00000000   0.00000000 270.00000000
-155.63044815   2.15050089   0.00000000   0.00000000 270.00000000
-155.53044815   2.15051447   0.00000000   0.00000000 270.00000000
-155.43044815   2.15052812   0.00000000   0.00000000 270.00000000
-155.33044815   2.15054184   0.00000000   0.00000000 270.00000000
-155.23044815   2.15055563   0.00000000   0.00000000 270.00000000
-155.13044815   2.15056948   0.00000000   0.00000000 270.00000000
-155.03044815   2.15058340   0.00000000   0.00000000 270.00000000
-154.93044815   2.15059738   0.00000000   0.00000000 270.00000000
-154.83044815   2.15061144   0.00000000   0.00000000 270.00000000
-154.73044815   2.15062557   0.00000000   0.00000000 270.00000000
-154.63044815   2.15063976   0.00000000   0.00000000 270.00000000
-154.53044815   2.15065402   0.00000000   0.00000000 270.00000000
-154.43044815   2.15066835   0.00000000   0.00000000 270.00000000
-154.33044815   2.15068275   0.00000000   0.00000000 270.00000000
-154.23044815   2.15069722   0.00000000   0.00000000 270.00000000
-154.13044815   2.15071177   0.00000000   0.00000000 270.00000000
-154.03044815   2.15072638   0.00000000   0.00000000 270.00000000
-153.93044815   2.15074106   0.00000000   0.00000000 270.00000000
-153.83044815   2.15075581   0.00000000   0.00000000 270.00000000
-153.73044815   2.15077064   0.00000000   0.00000000 270.00000000
-153.63044815   2.15078554   0.00000000   0.00000000 270.00000000
-153.53044815   2.15080051   0.00000000   0.00000000 270.00000000
-153.43044815   2.15081555   0.00000000   0.00000000 270.00000000
-153.33044815   2.15083066   0.00000000   0.00000000 270.00000000
-153.23044815   2.15084585   0.00000000   0.00000000 270.00000000
-153.13044815   2.15086111   0.00000000   0.00000000 270.00000000
-153.03044815   2.15087644   0.00000000   0.00000000 270.00000000
-152.93044815   2.15089185   0.00000000   0.00000000 270.00000000
-152.83044815   2.15090733   0.00000000   0.00000000 270.00000000
-152.73044815   2.15092289   0.00000000   0.00000000 270.00000000
-152.63044815   2.15093852   0.00000000   0.00000000 270.00000000
-152.53044815   2.15095422   0.00000000   0.00000000 270.00000000
-152.43044815   2.15097000   0.00000000   0.00000000 270.00000000
-152.33044815   2.15098586   0.00000000   0.00000000 270.00000000
-152.23044815   2.15100179   0.00000000   0.00000000 270.00000000
-152.13044815   2.15101780   0.00000000   0.00000000 270.00000000
-152.03044815   2.15103389   0.00000000   0.00000000 270.00000000
-151.93044815   2.15105005   0.00000000   0.00000000 270.00000000
-151.83044815   2.15106629   0.00000000   0.00000000 270.00000000
-151.73044815   2.15108261   0.00000000   0.00000000 270.00000000
-151.63044815   2.15109900   0.00000000   0.00000000 270.00000000
-151.53044815   2.15111548   0.00000000   0.00000000 270.00000000
-151.43044815   2.15113203   0.00000000   0.00000000 270.00000000
-151.33044815   2.15114866   0.00000000   0.00000000 270.00000000
-151.23044815   2.15116537   0.00000000   0.00000000 270.00000000
-151.13044815   2.15118216   0.00000000   0.00000000 270.00000000
-151.03044815   2.15119903   0.00000000   0.00000000 270.00000000
-150.93044815   2.15121598   0.00000000   0.00000000 270.00000000
-150.83044815   2.15123301   0.00000000   0.00000000 270.00000000
-150.73044815   2.15125012   0.00000000   0.00000000 270.00000000
-150.63044815   2.15126731   0.00000000   0.00000000 270.00000000
-150.53044815   2.15128459   0.00000000   0.00000000 270.00000000
-150.43044815   2.15130194   0.00000000   0.00000000 270.00000000
-150.33044815   2.15131938   0.00000000   0.00000000 270.00000000
-150.23044815   2.15133690   0.00000000   0.00000000 270.00000000
-150.13044815   2.15135450   0.00000000   0.00000000 270.00000000
-150.03044815   2.15137219   0.00000000   0.00000000 270.00000000
-149.93044815   2.15138996   0.00000000   0.00000000 270.00000000
-149.83044815   2.15140781   0.00000000   0.00000000 270.00000000
-149.73044815   2.15142575   0.00000000   0.00000000 270.00000000
-149.63044815   2.15144377   0.00000000   0.00000000 270.00000000
-149.53044815   2.15146188   0.00000000   0.00000000 270.00000000
-149.43044815   2.15148007   0.00000000   0.00000000 270.00000000
-149.33044815   2.15149835   0.00000000   0.00000000 270.00000000
-149.23044815   2.15151671   0.00000000   0.00000000 270.00000000
-149.13044815   2.15153516   0.00000000   0.00000000 270.00000000
-149.03044815   2.15155370   0.00000000   0.00000000 270.00000000
-148.93044815   2.15157232   0.00000000   0.00000000 270.00000000
-148.83044815   2.15159103   0.00000000   0.00000000 270.00000000
-148.73044815   2.15160983   0.00000000   0.00000000 270.00000000
-148.63044815   2.15162872   0.00000000   0.00000000 270.00000000
-148.53044815   2.15164769   0.00000000   0.00000000 270.00000000
-148.43044815   2.15166675   0.00000000   0.00000000 270.00000000
-148.33044815   2.15168591   0.00000000   0.00000000 270.00000000
-148.23044815   2.15170515   0.00000000   0.00000000 270.00000000
-148.13044815   2.15172448   0.00000000   0.00000000 270.00000000
-148.03044815   2.15174390   0.00000000   0.00000000 270.00000000
-147.93044815   2.15176341   0.00000000   0.00000000 270.00000000
-147.83044815   2.15178301   0.00000000   0.00000000 270.00000000
-147.73044815   2.15180271   0.00000000   0.00000000 270.00000000
-147.63044815   2.15182249   0.00000000   0.00000000 270.00000000
-147.53044815   2.15184237   0.00000000   0.00000000 270.00000000
-147.43044815   2.15186234   0.00000000   0.00000000 270.00000000
-147.33044815   2.15188240   0.00000000   0.00000000 270.00000000
-147.23044815   2.15190256   0.00000000   0.00000000 270.00000000
-147.13044815   2.15192280   0.00000000   0.00000000 270.00000000
-147.03044815   2.15194315   0.00000000   0.00000000 270.00000000
-146.93044815   2.15196358   0.00000000   0.00000000 270.00000000
-146.83044815   2.15198411   0.00000000   0.00000000 270.00000000
-146.73044815   2.15200474   0.00000000   0.00000000 270.00000000
-146.63044815   2.15202546   0.00000000   0.00000000 270.00000000
-146.53044815   2.15204628   0.00000000   0.00000000 270.00000000
-146.43044815   2.15206719   0.00000000   0.00000000 270.00000000
-146.33044815   2.15208820   0.00000000   0.00000000 270.00000000
-146.23044815   2.15210930   0.00000000   0.00000000 270.00000000
-146.13044815   2.15213050   0.00000000   0.00000000 270.00000000
-146.03044815   2.15215180   0.00000000   0.00000000 270.00000000
-145.93044815   2.15217320   0.00000000   0.00000000 270.00000000
-145.83044815   2.15219470   0.00000000   0.00000000 270.00000000
-145.73044815   2.15221629   0.00000000   0.00000000 270.00000000
-145.63044815   2.15223799   0.00000000   0.00000000 270.00000000
-145.53044815   2.15225978   0.00000000   0.00000000 270.00000000
-145.43044815   2.15228167   0.00000000   0.00000000 270.00000000
-145.33044815   2.15230366   0.00000000   0.00000000 270.00000000
-145.23044815   2.15232576   0.00000000   0.00000000 270.00000000
-145.13044815   2.15234795   0.00000000   0.00000000 270.00000000
-145.03044815   2.15237025   0.00000000   0.00000000 270.00000000
-144.93044815   2.15239265   0.00000000   0.00000000 270.00000000
-144.83044815   2.15241514   0.00000000   0.00000000 270.00000000
-144.73044815   2.15243775   0.00000000   0.00000000 270.00000000
-144.63044815   2.15246045   0.00000000   0.00000000 270.00000000
-144.53044815   2.15248326   0.00000000   0.00000000 270.00000000
-144.43044815   2.15250617   0.00000000   0.00000000 270.00000000
-144.33044815   2.15252919   0.00000000   0.00000000 270.00000000
-144.23044815   2.15255231   0.00000000   0.00000000 270.00000000
-144.13044815   2.15257553   0.00000000   0.00000000 270.00000000
-144.03044815   2.15259887   0.00000000   0.00000000 270.00000000
-143.93044815   2.15262230   0.00000000   0.00000000 270.00000000
-143.83044815   2.15264584   0.00000000   0.00000000 270.00000000
-143.73044815   2.15266949   0.00000000   0.00000000 270.00000000
-143.63044815   2.15269325   0.00000000   0.00000000 270.00000000
-143.53044815   2.15271711   0.00000000   0.00000000 270.00000000
-143.43044815   2.15274109   0.00000000   0.00000000 270.00000000
-143.33044815   2.15276516   0.00000000   0.00000000 270.00000000
-143.23044815   2.15278935   0.00000000   0.00000000 270.00000000
-143.13044815   2.15281365   0.00000000   0.00000000 270.00000000
-143.03044815   2.15283806   0.00000000   0.00000000 270.00000000
-142.93044815   2.15286257   0.00000000   0.00000000 270.00000000
-142.83044815   2.15288720   0.00000000   0.00000000 270.00000000
-142.73044815   2.15291194   0.00000000   0.00000000 270.00000000
-142.63044815   2.15293678   0.00000000   0.00000000 270.00000000
-142.53044815   2.15296174   0.00000000   0.00000000 270.00000000
-142.43044815   2.15298682   0.00000000   0.00000000 270.00000000
-142.33044815   2.15301200   0.00000000   0.00000000 270.00000000
-142.23044815   2.15303730   0.00000000   0.00000000 270.00000000
-142.13044815   2.15306271   0.00000000   0.00000000 270.00000000
-142.03044815   2.15308823   0.00000000   0.00000000 270.00000000
-141.93044815   2.15311387   0.00000000   0.00000000 270.00000000
-141.83044815   2.15313962   0.00000000   0.00000000 270.00000000
-141.73044815   2.15316549   0.00000000   0.00000000 270.00000000
-141.63044815   2.15319147   0.00000000   0.00000000 270.00000000
-141.53044815   2.15321757   0.00000000   0.00000000 270.00000000
-141.43044815   2.15324378   0.00000000   0.00000000 270.00000000
-141.33044815   2.15327011   0.00000000   0.00000000 270.00000000
-141.23044815   2.15329656   0.00000000   0.00000000 270.00000000
-141.13044815   2.15332312   0.00000000   0.00000000 270.00000000
-141.03044815   2.15334981   0.00000000   0.00000000 270.00000000
-140.93044815   2.15337661   0.00000000   0.00000000 270.00000000
-140.83044815   2.15340353   0.00000000   0.00000000 270.00000000
-140.73044815   2.15343057   0.00000000   0.00000000 270.00000000
-140.63044815   2.15345773   0.00000000   0.00000000 270.00000000
-140.53044815   2.15348501   0.00000000   0.00000000 270.00000000
-140.43044815   2.15351241   0.00000000   0.00000000 270.00000000
-140.33044815   2.15353993   0.00000000   0.00000000 270.00000000
-140.23044815   2.15356757   0.00000000   0.00000000 270.00000000
-140.13044815   2.15359534   0.00000000   0.00000000 270.00000000
-140.03044815   2.15362323   0.00000000   0.00000000 270.00000000
-139.93044815   2.15365124   0.00000000   0.00000000 270.00000000
-139.83044815   2.15367937   0.00000000   0.00000000 270.00000000
-139.73044815   2.15370763   0.00000000   0.00000000 270.00000000
-139.63044815   2.15373601   0.00000000   0.00000000 270.00000000
-139.53044815   2.15376451   0.00000000   0.00000000 270.00000000
-139.43044815   2.15379314   0.00000000   0.00000000 270.00000000
-139.33044815   2.15382190   0.00000000   0.00000000 270.00000000
