#      z (A) rho (1e-6/A2) irho (1e-6/A2) rhoM (1e-6/A2) theta (degrees)
-67.75412844   2.07164413   0.00000000   0.00000000 270.00000000
-67.65412844   2.07165355   0.00000000   0.00000000 270.00000000
-67.55412844   2.07166310   0.00000000   0.00000000 270.00000000
-67.45412844   2.07167278   0.00000000   0.00000000 270.00000000
-67.35412844   2.07168259   0.00000000   0.00000000 270.00000000
-67.25412844   2.07169253   0.00000000   0.00000000 270.00000000
-67.15412844   2.07170260   0.00000000   0.00000000 270.00000000
-67.05412844   2.07171280   0.00000000   0.00000000 270.00000000
-66.95412844   2.07172314   0.00000000   0.00000000 270.00000000
-66.85412844   2.07173362   0.00000000   0.00000000 270.00000000
-66.75412844   2.07174423   0.00000000   0.00000000 270.00000000
-66.65412844   2.07175498   0.00000000   0.00000000 270.00000000
-66.55412844   2.07176588   0.00000000   0.00000000 270.00000000
-66.45412844   2.07177692   0.00000000   0.00000000 270.00000000
-66.35412844   2.07178810   0.00000000   0.00000000 270.00000000
-66.25412844   2.07179943   0.00000000   0.00000000 270.00000000
-66.15412844   2.07181091   0.00000000   0.00000000 270.00000000
-66.05412844   2.07182253   0.00000000   0.00000000 270.00000000
-65.95412844   2.07183431   0.00000000   0.00000000 270.00000000
-65.85412844   2.07184624   0.00000000   0.00000000 270.00000000
-65.75412844   2.07185833   0.00000000   0.00000000 270.00000000
-65.65412844   2.07187057   0.00000000   0.00000000 270.00000000
-65.55412844   2.07188298   0.00000000   0.00000000 270.00000000
-65.45412844   2.07189554   0.00000000   0.00000000 270.00000000
-65.35412844   2.07190826   0.00000000   0.00000000 270.00000000
-65.25412844   2.07192115   0.00000000   0.00000000 270.00000000
-65.15412844   2.07193421   0.00000000   0.00000000 270.00000000
-65.05412844   2.07194743   0.00000000   0.00000000 270.00000000
-64.95412844   2.07196082   0.00000000   0.00000000 270.00000000
-64.85412844   2.07197439   0.00000000   0.00000000 270.00000000
-64.75412844   2.07198813   0.00000000   0.00000000 270.00000000
-64.65412844   2.07200204   0.00000000   0.00000000 270.00000000
-64.55412844   2.07201613   0.00000000   0.00000000 270.00000000
-64.45412844   2.07203040   0.00000000   0.00000000 270.00000000
-64.35412844   2.07204485   0.00000000   0.00000000 270.00000000
-64.25412844   2.07205949   0.00000000   0.00000000 270.00000000
-64.15412844   2.07207431   0.00000000   0.00000000 270.00000000
-64.05412844   2.07208932   0.00000000   0.00000000 270.00000000
-63.95412844   2.07210452   0.00000000   0.00000000 270.00000000
-63.85412844   2.07211991   0.00000000   0.00000000 270.00000000
-63.75412844   2.07213549   0.00000000   0.00000000 270.00000000
-63.65412844   2.07215127   0.00000000   0.00000000 270.00000000
-63.55412844   2.07216725   0.00000000   0.00000000 270.00000000
-63.45412844   2.07218343   0.00000000   0.00000000 270.00000000
-63.35412844   2.07219981   0.00000000   0.00000000 270.00000000
-63.25412844   2.07221639   0.00000000   0.00000000 270.00000000
-63.15412844   2.07223318   0.00000000   0.00000000 270.00000000
-63.05412844   2.07225019   0.00000000   0.00000000 270.00000000
-62.95412844   2.07226740   0.00000000   0.00000000 270.00000000
-62.85412844   2.07228483   0.00000000   0.00000000 270.00000000
-62.75412844   2.07230247   0.00000000   0.00000000 270.00000000
-62.65412844   2.07232033   0.00000000   0.00000000 270.00000000
-62.55412844   2.07233841   0.00000000   0.00000000 270.00000000
-62.45412844   2.07235672   0.00000000   0.00000000 270.00000000
-62.35412844   2.07237525   0.00000000   0.00000000 270.00000000
-62.25412844   2.07239401   0.00000000   0.00000000 270.00000000
-62.15412844   2.07241300   0.00000000   0.00000000 270.00000000
-62.05412844   2.07243222   0.00000000   0.00000000 270.00000000
-61.95412844   2.07245167   0.00000000   0.00000000 270.00000000
-61.85412844   2.07247137   0.00000000   0.00000000 270.00000000
-61.75412844   2.07249130   0.00000000   0.00000000 270.00000000
-61.65412844   2.07251148   0.00000000   0.00000000 270.00000000
-61.55412844   2.07253191   0.00000000   0.00000000 270.00000000
-61.45412844   2.07255258   0.00000000   0.00000000 270.00000000
-61.35412844   2.07257350   0.00000000   0.00000000 270.00000000
-61.25412844   2.07259467   0.00000000   0.00000000 270.00000000
-61.15412844   2.07261610   0.00000000   0.00000000 270.00000000
-61.05412844   2.07263779   0.00000000   0.00000000 270.00000000
-60.95412844   2.07265974   0.00000000   0.00000000 270.00000000
-60.85412844   2.07268196   0.00000000   0.00000000 270.00000000
-60.75412844   2.07270444   0.00000000   0.00000000 270.00000000
-60.65412844   2.07272719   0.00000000   0.00000000 270.00000000
-60.55412844   2.07275021   0.00000000   0.00000000 270.00000000
-60.45412844   2.07277351   0.00000000   0.00000000 270.00000000
-60.35412844   2.07279708   0.00000000   0.00000000 270.00000000
-60.25412844   2.07282094   0.00000000   0.00000000 270.00000000
-60.15412844   2.07284508   0.00000000   0.00000000 270.00000000
-60.05412844   2.07286951   0.00000000   0.00000000 270.00000000
-59.95412844   2.07289422   0.00000000   0.00000000 270.00000000
-59.85412844   2.07291923   0.00000000   0.00000000 270.00000000
-59.75412844   2.07294453   0.00000000   0.00000000 270.00000000
-59.65412844   2.07297013   0.00000000   0.00000000 270.00000000
-59.55412844   2.07299603   0.00000000   0.00000000 270.00000000
-59.45412844   2.07302224   0.00000000   0.00000000 270.00000000
-59.35412844   2.07304875   0.00000000   0.00000000 270.00000000
-59.25412844   2.07307557   0.00000000   0.00000000 270.00000000
-59.15412844   2.07310271   0.00000000   0.00000000 270.00000000
-59.05412844   2.07313017   0.00000000   0.00000000 270.00000000
-58.95412844   2.07315794   0.00000000   0.00000000 270.00000000
-58.85412844   2.07318603   0.00000000   0.00000000 270.00000000
-58.75412844   2.07321446   0.00000000   0.00000000 270.00000000
-58.65412844   2.07324321   0.00000000   0.00000000 270.00000000
-58.55412844   2.07327229   0.00000000   0.00000000 270.00000000
-58.45412844   2.07330171   0.00000000   0.00000000 270.00000000
-58.35412844   2.07333147   0.00000000   0.00000000 270.00000000
-58.25412844   2.07336157   0.00000000   0.00000000 270.00000000
-58.15412844   2.07339202   0.00000000   0.00000000 270.00000000
-58.05412844   2.07342281   0.00000000   0.00000000 270.00000000
-57.95412844   2.07345396   0.00000000   0.00000000 270.00000000
-57.85412844   2.07348547   0.00000000   0.00000000 270.00000000
-57.75412844   2.07351733   0.00000000   0.00000000 270.00000000
-57.65412844   2.07354956   0.00000000   0.00000000 270.00000000
-57.55412844   2.07358215   0.00000000   0.00000000 270.00000000
-57.45412844   2.07361511   0.00000000   0.00000000 270.00000000
-57.35412844   2.07364845   0.00000000   0.00000000 270.00000000
-57.25412844   2.07368216   0.00000000   0.00000000 270.00000000
-57.15412844   2.07371626   0.00000000   0.00000000 270.00000000
-57.05412844   2.07375073   0.00000000   0.00000000 270.00000000
-56.95412844   2.07378560   0.00000000   0.00000000 270.00000000
-56.85412844   2.07382086   0.00000000   0.00000000 270.00000000
-56.75412844   2.07385651   0.00000000   0.00000000 270.00000000
-56.65412844   2.07389256   0.00000000   0.00000000 270.00000000
-56.55412844   2.07392901   0.00000000   0.00000000 270.00000000
-56.45412844   2.07396587   0.00000000   0.00000000 270.00000000
-56.35412844   2.07400315   0.00000000   0.00000000 270.00000000
-56.25412844   2.07404083   0.00000000   0.00000000 270.00000000
-56.15412844   2.07407893   0.00000000   0.00000000 270.00000000
-56.05412844   2.07411746   0.00000000   0.00000000 270.00000000
-55.95412844   2.07415641   0.00000000   0.00000000 270.00000000
-55.85412844   2.07419579   0.00000000   0.00000000 270.00000000
-55.75412844   2.07423560   0.00000000   0.00000000 270.00000000
-55.65412844   2.07427585   0.00000000   0.00000000 270.00000000
-55.55412844   2.07431654   0.00000000   0.00000000 270.00000000
-55.45412844   2.07435768   0.00000000   0.00000000 270.00000000
-55.35412844   2.07439927   0.00000000   0.00000000 270.00000000
-55.25412844   2.07444131   0.00000000   0.00000000 270.00000000
-55.15412844   2.07448381   0.00000000   0.00000000 270.00000000
-55.05412844   2.07452677   0.00000000   0.00000000 270.00000000
-54.95412844   2.07457020   0.00000000   0.00000000 270.00000000
-54.85412844   2.07461410   0.00000000   0.00000000 270.00000000
-54.75412844   2.07465847   0.00000000   0.00000000 270.00000000
-54.65412844   2.07470332   0.00000000   0.00000000 270.00000000
-54.55412844   2.07474866   0.00000000   0.00000000 270.00000000
-54.45412844   2.07479448   0.00000000   0.00000000 270.00000000
-54.35412844   2.07484079   0.00000000   0.00000000 270.00000000
-54.25412844   2.07488760   0.00000000   0.00000000 270.00000000
-54.15412844   2.07493491   0.00000000   0.00000000 270.00000000
-54.05412844   2.07498273   0.00000000   0.00000000 270.00000000
-53.95412844   2.07503106   0.00000000   0.00000000 270.00000000
-53.85412844   2.07507989   0.00000000   0.00000000 270.00000000
-53.75412844   2.07512925   0.00000000   0.00000000 270.00000000
-53.65412844   2.07517913   0.00000000   0.00000000 270.00000000
-53.55412844   2.07522954   0.00000000   0.00000000 270.00000000
-53.45412844   2.07528048   0.00000000   0.00000000 270.00000000
-53.35412844   2.07533196   0.00000000   0.00000000 270.00000000
-53.25412844   2.07538397   0.00000000   0.00000000 270.00000000
-53.15412844   2.07543654   0.00000000   0.00000000 270.00000000
-53.05412844   2.07548965   0.00000000   0.00000000 270.00000000
-52.95412844   2.07554332   0.00000000   0.00000000 270.00000000
-52.85412844   2.07559755   0.00000000   0.00000000 270.00000000
-52.75412844   2.07565235   0.00000000   0.00000000 270.00000000
-52.65412844   2.07570771   0.00000000   0.00000000 270.00000000
-52.55412844   2.07576365   0.00000000   0.00000000 270.00000000
-52.45412844   2.07582017   0.00000000   0.00000000 270.00000000
-52.35412844   2.07587727   0.00000000   0.00000000 270.00000000
-52.25412844   2.07593496   0.00000000   0.00000000 270.00000000
-52.15412844   2.07599325   0.00000000   0.00000000 270.00000000
-52.05412844   2.07605213   0.00000000   0.00000000 270.00000000
-51.95412844   2.07611162   0.00000000   0.00000000 270.00000000
-51.85412844   2.07617172   0.00000000   0.00000000 270.00000000
-51.75412844   2.07623243   0.00000000   0.00000000 270.00000000
-51.65412844   2.07629376   0.00000000   0.00000000 270.00000000
-51.55412844   2.07635572   0.00000000   0.00000000 270.00000000
-51.45412844   2.07641830   0.00000000   0.00000000 270.00000000
-51.35412844   2.07648152   0.00000000   0.00000000 270.00000000
-51.25412844   2.07654538   0.00000000   0.00000000 270.00000000
-51.15412844   2.07660988   0.00000000   0.00000000 270.00000000
-51.05412844   2.07667504   0.00000000   0.00000000 270.00000000
-50.95412844   2.07674084   0.00000000   0.00000000 270.00000000
-50.85412844   2.07680731   0.00000000   0.00000000 270.00000000
-50.75412844   2.07687445   0.00000000   0.00000000 270.00000000
-50.65412844   2.07694226   0.00000000   0.00000000 270.00000000
-50.55412844   2.07701074   0.00000000   0.00000000 270.00000000
-50.45412844   2.07707991   0.00000000   0.00000000 270.00000000
-50.35412844   2.07714976   0.00000000   0.00000000 270.00000000
-50.25412844   2.07722031   0.00000000   0.00000000 270.00000000
-50.15412844   2.07729155   0.00000000   0.00000000 270.00000000
-50.05412844   2.07736350   0.00000000   0.00000000 270.00000000
-49.95412844   2.07743616   0.00000000   0.00000000 270.00000000
-49.85412844   2.07750954   0.00000000   0.00000000 270.00000000
-49.75412844   2.07758363   0.00000000   0.00000000 270.00000000
-49.65412844   2.07765845   0.00000000   0.00000000 270.00000000
-49.55412844   2.07773400   0.00000000   0.00000000 270.00000000
-49.45412844   2.07781029   0.00000000   0.00000000 270.00000000
-49.35412844   2.07788733   0.00000000   0.00000000 270.00000000
-49.25412844   2.07796511   0.00000000   0.00000000 270.00000000
-49.15412844   2.07804365   0.00000000   0.00000000 270.00000000
-49.05412844   2.07812294   0.00000000   0.00000000 270.00000000
-48.95412844   2.07820301   0.00000000   0.00000000 270.00000000
-48.85412844   2.07828384   0.00000000   0.00000000 270.00000000
-48.75412844   2.07836546   0.00000000   0.00000000 270.00000000
-48.65412844   2.07844786   0.00000000   0.00000000 270.00000000
-48.55412844   2.07853104   0.00000000   0.00000000 270.00000000
-48.45412844   2.07861503   0.00000000   0.00000000 270.00000000
-48.35412844   2.07869981   0.00000000   0.00000000 270.00000000
-48.25412844   2.07878541   0.00000000   0.00000000 270.00000000
-48.15412844   2.07887181   0.00000000   0.00000000 270.00000000
-48.05412844   2.07895904   0.00000000   0.00000000 270.00000000
-47.95412844   2.07904709   0.00000000   0.00000000 270.00000000
-47.85412844   2.07913597   0.00000000   0.00000000 270.00000000
-47.75412844   2.07922569   0.00000000   0.00000000 270.00000000
-47.65412844   2.07931626   0.00000000   0.00000000 270.00000000
-47.55412844   2.07940767   0.00000000   0.00000000 270.00000000
-47.45412844   2.07949994   0.00000000   0.00000000 270.00000000
-47.35412844   2.07959308   0.00000000   0.00000000 270.00000000
-47.25412844   2.07968708   0.00000000   0.00000000 270.00000000
-47.15412844   2.07978196   0.00000000   0.00000000 270.00000000
-47.05412844   2.07987771   0.00000000   0.00000000 270.00000000
-46.95412844   2.07997436   0.00000000   0.00000000 270.00000000
-46.85412844   2.08007190   0.00000000   0.00000000 270.00000000
-46.75412844   2.08017034   0.00000000   0.00000000 270.00000000
-46.65412844   2.08026969   0.00000000   0.00000000 270.00000000
-46.55412844   2.08036994   0.00000000   0.00000000 270.00000000
-46.45412844   2.08047112   0.00000000   0.00000000 270.00000000
-46.35412844   2.08057323   0.00000000   0.00000000 270.00000000
-46.25412844   2.08067626   0.00000000   0.00000000 270.00000000
-46.15412844   2.08078024   0.00000000   0.00000000 270.00000000
-46.05412844   2.08088516   0.00000000   0.00000000 270.00000000
-45.95412844   2.08099103   0.00000000   0.00000000 270.00000000
-45.85412844   2.08109786   0.00000000   0.00000000 270.00000000
-45.75412844   2.08120565   0.00000000   0.00000000 270.00000000
-45.65412844   2.08131442   0.00000000   0.00000000 270.00000000
-45.55412844   2.08142416   0.00000000   0.00000000 270.00000000
-45.45412844   2.08153489   0.00000000   0.00000000 270.00000000
-45.35412844   2.08164661   0.00000000   0.00000000 270.00000000
-45.25412844   2.08175933   0.00000000   0.00000000 270.00000000
-45.15412844   2.08187305   0.00000000   0.00000000 270.00000000
-45.05412844   2.08198778   0.00000000   0.00000000 270.00000000
-44.95412844   2.08210353   0.00000000   0.00000000 270.00000000
-44.85412844   2.08222030   0.00000000   0.00000000 270.00000000
-44.75412844   2.08233811   0.00000000   0.00000000 270.00000000
-44.65412844   2.08245696   0.00000000   0.00000000 270.00000000
-44.55412844   2.08257685   0.00000000   0.00000000 270.00000000
-44.45412844   2.08269779   0.00000000   0.00000000 270.00000000
-44.35412844   2.08281979   0.00000000   0.00000000 270.00000000
-44.25412844   2.08294285   0.00000000   0.00000000 270.00000000
-44.15412844   2.08306699   0.00000000   0.00000000 270.00000000
-44.05412844   2.08319221   0.00000000   0.00000000 270.00000000
-43.95412844   2.08331851   0.00000000   0.00000000 270.00000000
-43.85412844   2.08344591   0.00000000   0.00000000 270.00000000
-43.75412844   2.08357440   0.00000000   0.00000000 270.00000000
-43.65412844   2.08370401   0.00000000   0.00000000 270.00000000
-43.55412844   2.08383473   0.00000000   0.00000000 270.00000000
-43.45412844   2.08396656   0.00000000   0.00000000 270.00000000
-43.35412844   2.08409953   0.00000000   0.00000000 270.00000000
-43.25412844   2.08423363   0.00000000   0.00000000 270.00000000
-43.15412844   2.08436888   0.00000000   0.00000000 270.00000000
-43.05412844   2.08450527   0.00000000   0.00000000 270.00000000
-42.95412844   2.08464282   0.00000000   0.00000000 270.00000000
-42.85412844   2.08478153   0.00000000   0.00000000 270.00000000
-42.75412844   2.08492141   0.00000000   0.00000000 270.00000000
-42.65412844   2.08506247   0.00000000   0.00000000 270.00000000
-42.55412844   2.08520471   0.00000000   0.00000000 270.00000000
-42.45412844   2.08534815   0.00000000   0.00000000 270.00000000
-42.35412844   2.08549278   0.00000000   0.00000000 270.00000000
-42.25412844   2.08563863   0.00000000   0.00000000 270.00000000
-42.15412844   2.08578568   0.00000000   0.00000000 270.00000000
-42.05412844   2.08593395   0.00000000   0.00000000 270.00000000
-41.95412844   2.08608346   0.00000000   0.00000000 270.00000000
-41.85412844   2.08623419   0.00000000   0.00000000 270.00000000
-41.75412844   2.08638617   0.00000000   0.00000000 270.00000000
-41.65412844   2.08653940   0.00000000   0.00000000 270.00000000
-41.55412844   2.08669388   0.00000000   0.00000000 270.00000000
-41.45412844   2.08684963   0.00000000   0.00000000 270.00000000
-41.35412844   2.08700665   0.00000000   0.00000000 270.00000000
-41.25412844   2.08716495   0.00000000   0.00000000 270.00000000
-41.15412844   2.08732453   0.00000000   0.00000000 270.00000000
-41.05412844   2.08748540   0.00000000   0.00000000 270.00000000
-40.95412844   2.08764758   0.00000000   0.00000000 270.00000000
-40.85412844   2.08781106   0.00000000   0.00000000 270.00000000
-40.75412844   2.08797586   0.00000000   0.00000000 270.00000000
-40.65412844   2.08814198   0.00000000   0.00000000 270.00000000
-40.55412844   2.08830943   0.00000000   0.00000000 270.00000000
-40.45412844   2.08847821   0.00000000   0.00000000 270.00000000
-40.35412844   2.08864834   0.00000000   0.00000000 270.00000000
-40.25412844   2.08881982   0.00000000   0.00000000 270.00000000
-40.15412844   2.08899266   0.00000000   0.00000000 270.00000000
-40.05412844   2.08916686   0.00000000   0.00000000 270.00000000
-39.95412844   2.08934244   0.00000000   0.00000000 270.00000000
-39.85412844   2.08951940   0.00000000   0.00000000 270.00000000
-39.75412844   2.08969775   0.00000000   0.00000000 270.00000000
-39.65412844   2.08987749   0.00000000   0.00000000 270.00000000
-39.55412844   2.09005864   0.00000000   0.00000000 270.00000000
-39.45412844   2.09024119   0.00000000   0.00000000 270.00000000
-39.35412844   2.09042517   0.00000000   0.00000000 270.00000000
-39.25412844   2.09061057   0.00000000   0.00000000 270.00000000
-39.15412844   2.09079740   0.00000000   0.00000000 270.00000000
-39.05412844   2.09098567   0.00000000   0.00000000 270.00000000
-38.95412844   2.09117538   0.00000000   0.00000000 270.00000000
-38.85412844   2.09136656   0.00000000   0.00000000 270.00000000
-38.75412844   2.09155919   0.00000000   0.00000000 270.00000000
-38.65412844   2.09175329   0.00000000   0.00000000 270.00000000
-38.55412844   2.09194887   0.00000000   0.00000000 270.00000000
-38.45412844   2.09214593   0.00000000   0.00000000 270.00000000
-38.35412844   2.09234449   0.00000000   0.00000000 270.00000000
-38.25412844   2.09254454   0.00000000   0.00000000 270.00000000
-38.15412844   2.09274610   0.00000000   0.00000000 270.00000000
-38.05412844   2.09294917   0.00000000   0.00000000 270.00000000
-37.95412844   2.09315376   0.00000000   0.00000000 270.00000000
-37.85412844   2.09335989   0.00000000   0.00000000 270.00000000
-37.75412844   2.09356754   0.00000000   0.00000000 270.00000000
-37.65412844   2.09377674   0.00000000   0.00000000 270.00000000
-37.55412844   2.09398749   0.00000000   0.00000000 270.00000000
-37.45412844   2.09419980   0.00000000   0.00000000 270.00000000
-37.35412844   2.09441367   0.00000000   0.00000000 270.00000000
-37.25412844   2.09462911   0.00000000   0.00000000 270.00000000
