# intensity: 1.0499683929232
# background: 0
#           Q (1/A)             dQ (1/A)                    R                   dR               theory              fresnel
     0.0483642315116 0.000750702739851845       0.951434579138     0.00501003519873    0.944403477365908   0.0180933328193997
     0.0497866914682 0.000750709007438337        0.94044560157     0.00496697431537    0.940446863672086   0.0165395315687132
     0.0512091499082 0.000750715456630211        0.92483593417     0.00490572657895     0.93365118102546   0.0144008303228469
     0.0526316067882    0.000750722087422        0.91507948482      0.0048673956524    0.925546013521928   0.0125448489238492
      0.054054062065 0.000750728899808085       0.891642996968     0.00477516962074    0.915978915171398   0.0109906547995805
     0.0554765156953 0.000750735893782693       0.876236096925     0.00471441470647    0.904412778222803  0.00967905007579564
     0.0568989676356 0.000750743069339895       0.854327123245     0.00462784251127    0.890075534463047  0.00856439932671144
     0.0583214178427 0.000750750426473612       0.832076973197     0.00453970038522    0.871867114294262  0.00761108894691649
     0.0597438662732 0.000750757965177608       0.797485049287     0.00440218205643    0.848267019264373  0.00679101947951524
     0.0611663128838 0.000750765685445495       0.755120376229     0.00423288370811    0.817321225253551  0.00608179935766354
     0.0625887576312 0.000750773587270732       0.713350487453     0.00406490300013    0.776909406420919  0.00546542410218056
      0.064011200472 0.000750781670646622       0.660982624188     0.00385260415179    0.725646264681404  0.00492729729139778
     0.0654336413629 0.000750789935566318       0.611077559878     0.00364824562759    0.664658955672613  0.00445549587477233
     0.0668560802606 0.000750798382022817        0.56406531003     0.00345358980774    0.599490624985959  0.00404021262700723
     0.0682785171218 0.000750807010008963       0.524906916272     0.00328959354811    0.539750377525364  0.00367332866302088
      0.069700951903 0.000750815819517446       0.497644208161     0.00317426832942    0.494763413182824  0.00334808256306276
     0.0711233845611 0.000750824810540804        0.47861385523      0.0030931423649    0.468157792462043  0.00305881203097832
     0.0725458150526  0.00075083398307142       0.474897210464      0.0030772339742    0.456735452363601  0.00280075054920074
     0.0739682433342 0.000750843337101525       0.465759918032     0.00303803317951    0.453968772956757  0.00256986611542536
     0.0753906693627 0.000750852872623196       0.468748114267     0.00305086561273    0.453844439498779  0.00236273245398848
     0.0768130930946 0.000750862589628355       0.459408054463     0.00301070035281    0.452446025384161  0.00217642548669719
     0.0782355144866 0.000750872488108774       0.451730687084     0.00297757578127    0.447783806355877  0.00200843959658955
     0.0796579334955  0.00075088256805607        0.44262088991     0.00293813751632    0.439110380118922   0.0018566195092046
     0.0810803500778 0.000750892829461706       0.427630839031     0.00287291585697    0.426352390686354   0.0017191045769255
     0.0825027641903 0.000750903272316994       0.407801406942     0.00278596845389    0.409773770234879  0.00159428297394779
     0.0839251757896 0.000750913896613089        0.38491694649     0.00268458712938    0.389809422678778   0.0014807538564226
     0.0853475848324 0.000750924702340998        0.36495233615     0.00259513435406    0.366994320175301  0.00137729595888685
     0.0867699912754  0.00075093568949157       0.339069270754     0.00247758842129    0.341936918666128  0.00128284141871613
     0.0881923950752 0.000750946858055505       0.315984395044     0.00237105595035    0.315307271989675  0.00119645386787864
     0.0896147961885 0.000750958208023346        0.29176402206     0.00225731092922    0.287823742283515  0.00111731002405785
      0.091037194572 0.000750969739385486       0.260541415925     0.00210718175422    0.260230447290116  0.00104468416417187
     0.0924595901823 0.000750981452132163       0.233198425444     0.00197181075627    0.233263312381371 0.000977934982066313
     0.0938819829761 0.000750993346253465       0.203718442648     0.00182081600318    0.207607159634278 0.000916494426217179
     0.0953043729102 0.000751005421739325       0.179902428357     0.00169407309675    0.183849792304347 0.000859858188147129
     0.0967267599411 0.000751017678579521       0.159465870211      0.0015810856865    0.162440971031754 0.000807577572064604
     0.0981491440255 0.000751030116763682       0.139745756765     0.00146746640219    0.143663962070998 0.000759252524244297
     0.0995715251202 0.000751042736281284       0.126108664385     0.00138566532441    0.127624945614923 0.000714525639560281
      0.100993903182 0.000751055537121649       0.112524602447     0.00130099949817    0.114261743773155 0.000673076993918075
      0.102416278167 0.000751068519273941       0.102319996657     0.00123490813755    0.103369325006159 0.000634619676947078
      0.103838650032 0.000751081682727178      0.0923451938816     0.00116785769893   0.0946366010638388 0.000598895920112603
      0.105261018734 0.000751095027470228       0.086452774134     0.00112693280748   0.0876878523641805 0.000565673732723657
       0.10668338423 0.000751108553491803      0.0807360861031      0.0010861680282   0.0821226688931107 0.000534743972219252
      0.108105746476 0.000751122260780457      0.0782499283608     0.00106807991715   0.0775499965656968 0.000505917786852033
      0.109528105429 0.000751136149324599       0.074804005069     0.00104262552508   0.0736139688767517 0.000479024378428152
      0.110950461045 0.000751150219112476      0.0717636165127     0.00101976905544    0.070011055776943  0.00045390904100258
      0.112372813282 0.000751164470132202      0.0692369052886     0.00100047071944   0.0664993437069529 0.000430431437786726
      0.113795162096  0.00075117890237172      0.0658044998135    0.000973787182507   0.0629014192497959 0.000408464084513236
      0.115217507443  0.00075119351581882      0.0610469014476    0.000935831757317   0.0591024860234909 0.000387891011740329
      0.116639849281 0.000751208310461158      0.0568029804151    0.000900911670889   0.0550451870795426 0.000368606582873875
      0.118062187565  0.00075122328628621       0.051153205622    0.000852651373305   0.0507223066871433 0.000350514447976236
      0.119484522253 0.000751238443281329      0.0459089655654    0.000805749994439    0.046168211243577 0.000333526615910664
      0.120906853302 0.000751253781433706      0.0424490783547    0.000773512018533   0.0414496311863367 0.000317562630289058
      0.122329180667  0.00075126930073036      0.0366782244134    0.000717022413013   0.0366562117913928 0.000302548836246748
      0.123751504306 0.000751285001158187       0.032705241141    0.000675774607553    0.031891168829355 0.000288417726963368
      0.125173824175 0.000751300882703912      0.0279482240383    0.000623256835424   0.0272623552059098 0.000275107360505753
      0.126596140232 0.000751316945354128      0.0231236178092    0.000565581758074   0.0228740484455171 0.000262560838456789
      0.128018452432 0.000751333189095245      0.0191641523513    0.000513885901012    0.018819777257256 0.000250725839258065
      0.129440760732 0.000751349613913542         0.0141359001    0.000440271397973   0.0151764931772293 0.000239554199767531
      0.130863065089 0.000751366219795145      0.0120352606732    5.97466838036e-05   0.0120003449830684 0.000229001539664283
       0.13228536546 0.000751383006726032     0.00934358447845    4.93090836114e-05  0.00932422435605759  0.00021902692378502
      0.133707661802 0.000751399974692025       0.007159964344    4.06431350028e-05  0.00715712874149385 0.000209592558175586
       0.13512995407 0.000751417123678775      0.0055887953509    3.42157019178e-05  0.00548524804804969 0.000200663516151413
      0.136552242222 0.000751434453671812     0.00434438216249    2.89307750414e-05   0.0042745473154602 0.000192207491039835
      0.137974526215 0.000751451964656508     0.00361685846449    2.57148597532e-05  0.00347450874938886 0.000184194572827123
      0.139396806004 0.000751469656618054      0.0032326339746    2.39622827213e-05  0.00302262881744566 0.000176597046087751
      0.140819081547 0.000751487529541531     0.00306589923611    2.31866348511e-05  0.00284924632842159 0.000169389206942803
      0.142241352801 0.000751505583411852     0.00318062969614    2.37193714533e-05  0.00288230313888397 0.000162547197142437
      0.143663619722 0.000751523818213769     0.00337496823168    2.47063536734e-05  0.00305170072673181 0.000156048853438694
      0.145085882266 0.000751542233931882      0.0036949756928    2.61589950027e-05  0.00329299966587143 0.000149873570707099
      0.146508140391 0.000751560830550665     0.00397145575941    2.73928607322e-05  0.00355030069817593 0.000144002177430988
      0.147930394053 0.000751579608054414     0.00421400608699    2.84612866375e-05  0.00377823357037474 0.000138416822342373
      0.149352643209  0.00075159856642729     0.00432489280365    2.89462301701e-05  0.00394305481537794  0.00013310087106425
      0.150774887815 0.000751617705653286     0.00441551630015    2.93399338413e-05  0.00402291405515998 0.000128038811824604
      0.152197127829 0.000751637025716273     0.00440570235966    2.92971621979e-05  0.00400738957829106 0.000123216169326739
      0.153619363206 0.000751656526599929     0.00423975754483    2.85742069983e-05  0.00389641965060094 0.000118619426039745
      0.155041593904 0.000751676208287825     0.00402447267002    2.76282468751e-05  0.00369876919775202 0.000114235950142027
      0.156463819879  0.00075169607076335     0.00376295683488    2.64655617869e-05  0.00343017524935989 0.000110053929564119
      0.157886041087 0.000751716114009744     0.00337408957571    2.47042895404e-05  0.00311131146101567  0.00010606231150687
      0.159308257487 0.000751736338010139     0.00308011744466    2.33425864036e-05  0.00276570395555612 0.000102250746950732
      0.160730469033 0.000751756742747443     0.00261365787108    2.11158744366e-05   0.0024177187082496  9.8609539731561e-05
      0.162152675683 0.000751777328204473      0.0022931908026    1.95260552448e-05  0.00209072524120197 9.51295996970595e-05
      0.163574877394  0.00075179809436388     0.00195542091802     1.7781265055e-05  0.00180552282140338 9.18023996585685e-05
      0.164997074122 0.000751819041208152     0.00171939970045    1.65088742694e-05  0.00157909399552256 8.86199357528567e-05
      0.166419265824 0.000751840168719637     0.00153650353356    1.54844721767e-05  0.00142372685628282 8.55746909230052e-05
      0.167841452457 0.000751861476880536     0.00142038542022    1.48131868323e-05  0.00134652295122334 8.26596012576309e-05
      0.169263633977 0.000751882965672885     0.00142606290655    1.48464289689e-05  0.00134928360876766 7.98680249347309e-05
       0.17068581034 0.000751904635078568      0.0014925706036    1.52325652606e-05  0.00142874523766761 7.71937135437337e-05
      0.172107981505 0.000751926485079365     0.00161643442974    1.59373580224e-05  0.00157711536214623 7.46307855847842e-05
      0.173530147426 0.000751948515656829     0.00180153400168    1.69585580227e-05  0.00178284701255972 7.21737019851292e-05
      0.174952308062 0.000751970726792442     0.00205381716225    1.82992953111e-05  0.00203158037474032  6.9817243413536e-05
      0.176374463368  0.00075199311846747      0.0023343525766    1.97344470814e-05  0.00230717750045192 6.75564893079404e-05
      0.177796613302 0.000752015690663082     0.00260542551408    2.10763821058e-05  0.00259277807930375 6.53867984175446e-05
      0.179218757819 0.000752038443360243     0.00289958689434    2.24920938466e-05  0.00287181093696371 6.33037907829711e-05
      0.180640896878 0.000752061376539838     0.00321740446812    2.39825517742e-05  0.00312890598978438 6.13033309989238e-05
      0.182063030433 0.000752084490182517     0.00343099961467    2.49651513109e-05  0.00335066358583603 5.93815126990371e-05
      0.183485158443 0.000752107784268866     0.00358430526397    2.56621682408e-05   0.0035262513466849 5.75346441172466e-05
      0.184907280863 0.000752131258779252      0.0037512639166      2.641398538e-05  0.00364781171220328 5.57592346924337e-05
      0.186329397651 0.000752154913693944     0.00387658766861    2.69733282329e-05  0.00371067563120273  5.4051982589235e-05
      0.187751508763 0.000752178748993029     0.00385267463694    2.68668280435e-05  0.00371338863599649  5.2409763099586e-05
      0.189173614156  0.00075220276465646     0.00376766103801    2.64872359174e-05  0.00365756460678688 5.08296178329975e-05
      0.190595713786 0.000752226960664025     0.00367332014005    2.60639193999e-05  0.00354758971283503 4.93087446508768e-05
       0.19201780761 0.000752251336995379     0.00348570625226    2.52151940827e-05  0.00339020431848806 4.78444882785978e-05
      0.193439895585 0.000752275893630027     0.00333914599882    2.45448440255e-05  0.00319399412663415 4.64343315521249e-05
      0.194861977668 0.000752300630547327     0.00308701153477    2.33760521939e-05  0.00296882360459689 4.50758872476814e-05
      0.196284053814 0.000752325547726453     0.00285420755945    2.22766508554e-05  0.00272524491404116 4.37668904543886e-05
      0.197706123982 0.000752350645146498     0.00256368247262    2.08728404235e-05  0.00247391426432853 4.25051914410091e-05
      0.199128188127 0.000752375922786338     0.00231195354194    1.96222677466e-05   0.0022250449692566 4.12887490006538e-05
      0.200550246206 0.000752401380624735     0.00203928550175    1.82246477035e-05  0.00198792264415868 4.01156242141659e-05
      0.201972298176 0.000752427018640302      0.0018164982344    1.70414620999e-05  0.00177050315881448 3.89839746214274e-05
      0.203394343994 0.000752452836811504     0.00159668488852    1.58290040676e-05  0.00157910837108248  3.7892048762905e-05
      0.204816383616 0.000752478835116639     0.00142823927619    1.48627561179e-05  0.00141822861651619 3.68381810677968e-05
      0.206238416999 0.000752505013533874     0.00128250360926     1.3995115781e-05  0.00129043473440255 3.58207870615258e-05
      0.207660444099  0.00075253137204121      0.0011998195825    1.34864695972e-05  0.00119639641786406 3.48383588755048e-05
      0.209082464874 0.000752557910616538      0.0011205150117    1.29866515456e-05   0.0011349982116722 3.38894610319025e-05
       0.21050447928 0.000752584629237562     0.00109082085699    1.27957157118e-05  0.00110353984751547 3.29727264927215e-05
      0.211926487274 0.000752611527881857     0.00108626985584    1.27656916617e-05  0.00109800402609943 3.20868529458557e-05
      0.213348488811 0.000752638606526812     0.00109142915849     6.3819630991e-06  0.00111337238403699 3.12305993205393e-05
       0.21477048385 0.000752665865149744     0.00112026718402    6.87719049242e-06  0.00114396927153998 3.04027825075698e-05
      0.216192472347 0.000752693303727766     0.00116189757771    7.05034664085e-06  0.00118381308358688  2.9602274283686e-05
      0.217614454258 0.000752720922237841     0.00121623472667     7.2749655485e-06  0.00122695611729582 2.88279984130735e-05
       0.21903642954 0.000752748720656806     0.00125786512065    7.44612931396e-06  0.00126779609424526 2.80789279214469e-05
       0.22045839815 0.000752776698961349     0.00129284474508     7.5893713891e-06  0.00130134537133362 2.73540825312343e-05
      0.221880360044  0.00075280485712799     0.00133221135443    7.74968165455e-06  0.00132344723172592 2.66525262462872e-05
      0.223302315179 0.000752833195133124      0.0013433797814    7.79494488572e-06  0.00133093226333452 2.59733650750576e-05
      0.224724263513 0.000752861712953016     0.00132416013838    7.71661449338e-06  0.00132171147888289  2.5315744885854e-05
         0.226146205 0.000752890410563704      0.0013026424649     7.6287601863e-06  0.00129480632042091 2.46788493869685e-05
      0.227568139599 0.000752919287941181     0.00128050297122    7.53817077327e-06  0.00125031886534122 2.40618982152983e-05
      0.228990067266 0.000752948345061231     0.00119781443798    7.19851343166e-06  0.00118934829212354 2.34641451404099e-05
      0.230411987957 0.000752977581899491       0.001134456394    6.93603181628e-06   0.0011138618840599 2.28848763645131e-05
       0.23183390163 0.000753006998431492     0.00106001373391    6.62480067862e-06  0.00102653049538269 2.23234089177431e-05
      0.233255808241 0.000753036594632577     0.00094615309734    6.14183828876e-06 0.000930539449165308 2.17790891446911e-05
      0.234677707746 0.000753066370477943    0.000848486814714    5.71950179159e-06 0.000829386276689354 2.12512912718698e-05
      0.236099600102  0.00075309632594266    0.000743412765034     5.2542046191e-06 0.000726676568672231 2.07394160539976e-05
      0.237521485267 0.000753126461001672     0.00063814946533    4.77397584665e-06 0.000625928529072258 2.02428894942644e-05
      0.238943363196 0.000753156775629716    0.000536995583825    4.29479165684e-06 0.000530395666006846 1.97611616350963e-05
      0.240365233847 0.000753187269801442     0.00045000838202    3.86380973128e-06 0.000442915500173606 1.92937054104602e-05
      0.241787097175 0.000753217943491293    0.000363751142256    3.41238843721e-06 0.000365790319860836 1.88400155634567e-05
      0.243208953139 0.000753248796673652    0.000298697963644    3.04975269737e-06 0.000300703961027354 1.83996076171449e-05
      0.244630801693 0.000753279829322644    0.000242972083755    2.71741058142e-06 0.000248676467160177 1.79720169046662e-05
      0.246052642796  0.00075331104141236    0.000198736354524    2.43356797683e-06 0.000210056388068563 1.75567976444302e-05
      0.247474476404 0.000753342432916679    0.000174182577659    2.26554737987e-06 0.000184548531954979 1.71535220688854e-05
      0.248896302473 0.000753374003809332    0.000159767168989    2.16240641046e-06 0.000171273273888505 1.67617795951895e-05
      0.250318120961 0.000753405754063953    0.000153719294349    2.11814303233e-06 0.000168852135773613 1.63811760389651e-05
      0.251739931823 0.000753437683653959    0.000153051513857    2.11314362341e-06 0.000175513336305189 1.60113328701899e-05
      0.253161735017 0.000753469792552689     0.00017290379107    2.25593599085e-06  0.00018921039845247  1.5651886504089e-05
      0.254583530499 0.000753502080733295    0.000195486668809    2.41079482605e-06 0.000207746701261628  1.5302487630777e-05
      0.256005318226 0.000753534548168803    0.000217420690923    2.55480813452e-06  0.00022889905327107 1.49628005766244e-05
      0.257427098154 0.000753567194832071    0.000239514222915    2.69494330267e-06 0.000250533907030021 1.46325026988294e-05
      0.258848870241 0.000753600020695859    0.000256498017476     2.7995896412e-06 0.000270710672240474 1.43112838089578e-05
      0.260270634443 0.000753633025732736    0.000275266165154    2.91238863737e-06 0.000287767650505422 1.39988456266191e-05
      0.261692390717 0.000753666209915148    0.000288951611052    2.99306016794e-06 0.000300387334663025 1.36949012584648e-05
      0.263114139019 0.000753699573215374    0.000300311991392    3.05910247919e-06 0.000307639113317465 1.33991747037886e-05
      0.264535879306  0.00075373311560557     0.00029936304069    3.05328890917e-06 0.000308998725226897 1.31114003833583e-05
      0.265957611535 0.000753766837057748    0.000293953207578    3.02171931466e-06 0.000304345051159136 1.28313226916913e-05
      0.267379335663 0.000753800737543776    0.000283379565175    2.95978246281e-06 0.000293935955846517  1.2558695570679e-05
      0.268801051645  0.00075383481703533    0.000266019974526    2.85657438288e-06 0.000278365852300932 1.22932821040103e-05
       0.27022275944 0.000753869075504036    0.000248254848844    2.74849659603e-06 0.000258508419657418 1.20348541294382e-05
