# intensity: 1.02594778584287
# background: 0
#           Q (1/A)             dQ (1/A)                    R                   dR               theory              fresnel
     0.0483642315116 0.000750702739851845       0.951434579138     0.00501003519873    0.924474096564718   0.0189625457871298
     0.0497866914682 0.000750709007438337        0.94044560157     0.00496697431537    0.920793176931071   0.0173199828316552
     0.0512091499082 0.000750715456630211        0.92483593417     0.00490572657895    0.914494393829018   0.0150622714048268
     0.0526316067882    0.000750722087422        0.91507948482      0.0048673956524    0.907020154149491   0.0131066213783362
      0.054054062065 0.000750728899808085       0.891642996968     0.00477516962074    0.898243541779149   0.0114717273252724
     0.0554765156953 0.000750735893782693       0.876236096925     0.00471441470647    0.887684200317902    0.010094060226207
     0.0568989676356 0.000750743069339895       0.854327123245     0.00462784251127    0.874648401077391  0.00892479796010218
     0.0583214178427 0.000750750426473612       0.832076973197     0.00453970038522    0.858140539762141  0.00792594379126265
     0.0597438662732 0.000750757965177608       0.797485049287     0.00440218205643    0.836767706005152  0.00706759003150235
     0.0611663128838 0.000750765685445495       0.755120376229     0.00423288370811    0.808698970811816  0.00632595512101702
     0.0625887576312 0.000750773587270732       0.713350487453     0.00406490300013    0.771846931124581  0.00568195345724677
      0.064011200472 0.000750781670646622       0.660982624188     0.00385260415179    0.724591349857614  0.00512013870964628
     0.0654336413629 0.000750789935566318       0.611077559878     0.00364824562759    0.667341922659835  0.00462791314680202
     0.0668560802606 0.000750798382022817        0.56406531003     0.00345358980774    0.604475964066566  0.00419492916188446
     0.0682785171218 0.000750807010008963       0.524906916272     0.00328959354811    0.544621857438797   0.0038126314850619
      0.069700951903 0.000750815819517446       0.497644208161     0.00317426832942    0.497205779334299  0.00347390361091457
     0.0711233845611 0.000750824810540804        0.47861385523      0.0030931423649    0.467102417207027  0.00317279227224568
     0.0725458150526  0.00075083398307142       0.474897210464      0.0030772339742    0.452534867977111  0.00290429095532296
     0.0739682433342 0.000750843337101525       0.465759918032     0.00303803317951    0.447739793640209  0.00266416849686938
     0.0753906693627 0.000750852872623196       0.468748114267     0.00305086561273    0.446790870006755  0.00244883240380919
     0.0768130930946 0.000750862589628355       0.459408054463     0.00301070035281    0.445545472608939  0.00225521913303055
     0.0782355144866 0.000750872488108774       0.451730687084     0.00297757578127    0.441744017101502  0.00208070546191395
     0.0796579334955  0.00075088256805607        0.44262088991     0.00293813751632    0.434418988792539  0.00192303647508752
     0.0810803500778 0.000750892829461706       0.427630839031     0.00287291585697    0.423329124965658  0.00178026672876564
     0.0825027641903 0.000750903272316994       0.407801406942     0.00278596845389    0.408601342757322  0.00165071193073675
     0.0839251757896 0.000750913896613089        0.38491694649     0.00268458712938    0.390545524232252   0.0015329090614156
     0.0853475848324 0.000750924702340998        0.36495233615     0.00259513435406    0.369573259983521  0.00142558330791531
     0.0867699912754  0.00075093568949157       0.339069270754     0.00247758842129    0.346169521813678  0.00132762052621563
     0.0881923950752 0.000750946858055505       0.315984395044     0.00237105595035    0.320886419008457  0.00123804421102763
     0.0896147961885 0.000750958208023346        0.29176402206     0.00225731092922    0.294341177135931  0.00115599615867187
      0.091037194572 0.000750969739385486       0.260541415925     0.00210718175422     0.26720787502861  0.00108072016915542
     0.0924595901823 0.000750981452132163       0.233198425444     0.00197181075627    0.240197182325954  0.00101154826001943
     0.0938819829761 0.000750993346253465       0.203718442648     0.00182081600318     0.21402232372451 0.000947888964518692
     0.0953043729102 0.000751005421739325       0.179902428357     0.00169407309675    0.189353547589204 0.000889217366192265
     0.0967267599411 0.000751017678579521       0.159465870211      0.0015810856865    0.166767244083499 0.000835066585324098
     0.0981491440255 0.000751030116763682       0.139745756765     0.00146746640219    0.146698580670183 0.000785020483668526
     0.0995715251202 0.000751042736281284       0.126108664385     0.00138566532441    0.129407020338582 0.000738707394988945
      0.100993903182 0.000751055537121649       0.112524602447     0.00130099949817    0.114961866212707 0.000695794722104416
      0.102416278167 0.000751068519273941       0.102319996657     0.00123490813755    0.103250585213396 0.000655984268209716
      0.103838650032 0.000751081682727178      0.0923451938816     0.00116785769893   0.0940075756164468 0.000619008192198789
      0.105261018734 0.000751095027470228       0.086452774134     0.00112693280748   0.0868569806352152 0.000584625495990719
       0.10668338423 0.000751108553491803      0.0807360861031      0.0010861680282    0.081361277570288 0.000552618966524505
      0.108105746476 0.000751122260780457      0.0782499283608     0.00106807991715   0.0770678601466308 0.000522792507453407
      0.109528105429 0.000751136149324599       0.074804005069     0.00104262552508    0.073547984985502 0.000494968805617482
      0.110950461045 0.000751150219112476      0.0717636165127     0.00101976905544   0.0704252136826788 0.000468987286040479
      0.112372813282 0.000751164470132202      0.0692369052886     0.00100047071944    0.067392939963093 0.000444702315889306
      0.113795162096  0.00075117890237172      0.0658044998135    0.000973787182507   0.0642222556253921 0.000421981624121809
      0.115217507443  0.00075119351581882      0.0610469014476    0.000935831757317   0.0607622052728383 0.000400704908007381
      0.116639849281 0.000751208310461158      0.0568029804151    0.000900911670889   0.0569345977663893 0.000380762602210046
      0.118062187565  0.00075122328628621       0.051153205622    0.000852651373305   0.0527252604938523 0.000362054789577673
      0.119484522253 0.000751238443281329      0.0459089655654    0.000805749994439   0.0481731899140734  0.00034449023538709
      0.120906853302 0.000751253781433706      0.0424490783547    0.000773512018533   0.0433586370751375 0.000327985529847596
      0.122329180667  0.00075126930073036      0.0366782244134    0.000717022413013   0.0383908542545116 0.000312464325302501
      0.123751504306 0.000751285001158187       0.032705241141    0.000675774607553   0.0333960388834594 0.000297856656551523
      0.125173824175 0.000751300882703912      0.0279482240383    0.000623256835424   0.0285059226874275 0.000284098334449374
      0.126596140232 0.000751316945354128      0.0231236178092    0.000565581758074   0.0238474263193528 0.000271130403870134
      0.128018452432 0.000751333189095245      0.0191641523513    0.000513885901012   0.0195337878056857 0.000258898658653949
      0.129440760732 0.000751349613913542         0.0141359001    0.000440271397973    0.015657538143732  0.00024735320675656
      0.130863065089 0.000751366219795145      0.0120352606732    5.97466838036e-05    0.012285616470097 0.000236448080000763
       0.13228536546 0.000751383006726032     0.00934358447845    4.93090836114e-05  0.00945678501818085 0.000226140883304435
      0.133707661802 0.000751399974692025       0.007159964344    4.06431350028e-05   0.0071813338454793 0.000216392478988891
       0.13512995407 0.000751417123678775      0.0055887953509    3.42157019178e-05   0.0054428825750831  0.00020716670230453
      0.136552242222 0.000751434453671812     0.00434438216249    2.89307750414e-05   0.0042019217535834 0.000198430104707381
      0.137974526215 0.000751451964656508     0.00361685846449    2.57148597532e-05  0.00340061679441188 0.000190151721992518
      0.139396806004 0.000751469656618054      0.0032326339746    2.39622827213e-05  0.00296833923318029 0.000182302864553589
      0.140819081547 0.000751487529541531     0.00306589923611    2.31866348511e-05  0.00282739649212739 0.000174856927422422
      0.142241352801 0.000751505583411852     0.00318062969614    2.37193714533e-05  0.00289849329289882 0.000167789218104738
      0.143663619722 0.000751523818213769     0.00337496823168    2.47063536734e-05  0.00310555788748373 0.000161076800303925
      0.145085882266 0.000751542233931882      0.0036949756928    2.61589950027e-05  0.00337968404999532  0.00015469835192856
      0.146508140391 0.000751560830550665     0.00397145575941    2.73928607322e-05  0.00366205666846812 0.000148634035941561
      0.147930394053 0.000751579608054414     0.00421400608699    2.84612866375e-05  0.00390583116472475 0.000142865382796069
      0.149352643209  0.00075159856642729     0.00432489280365    2.89462301701e-05  0.00407701727840482 0.000137375183257124
      0.150774887815 0.000751617705653286     0.00441551630015    2.93399338413e-05   0.0041544739392688 0.000132147390641986
      0.152197127829 0.000751637025716273     0.00440570235966    2.92971621979e-05  0.00412915606594911 0.000127167031527734
      0.153619363206 0.000751656526599929     0.00423975754483    2.85742069983e-05  0.00400277041984668 0.000122420124160521
      0.155041593904 0.000751676208287825     0.00402447267002    2.76282468751e-05  0.00378600101252397 0.000117893603769749
      0.156463819879  0.00075169607076335     0.00376295683488    2.64655617869e-05  0.00349645939694317 0.000113575254211182
      0.157886041087 0.000751716114009744     0.00337408957571    2.47042895404e-05  0.00315650474858881 0.000109453645291193
      0.159308257487 0.000751736338010139     0.00308011744466    2.33425864036e-05  0.00279106500236707 0.000105518075268891
      0.160730469033 0.000751756742747443     0.00261365787108    2.11158744366e-05  0.00242557444062678 0.000101758518094963
      0.162152675683 0.000751777328204473      0.0022931908026    1.95260552448e-05  0.00208412530210979 9.81655748830954e-05
      0.163574877394  0.00075179809436388     0.00195542091802     1.7781265055e-05  0.00178791126136335 9.47304293172099e-05
      0.164997074122 0.000751819041208152     0.00171939970045    1.65088742694e-05  0.00155401906299864 9.14448065947678e-05
      0.166419265824 0.000751840168719637     0.00153650353356    1.54844721767e-05  0.00139460166036664 8.83009356040754e-05
      0.167841452457 0.000751861476880536     0.00142038542022    1.48131868323e-05  0.00131644272262572 8.52915140648735e-05
      0.169263633977 0.000751882965672885     0.00142606290655    1.48464289689e-05  0.00132089954658535 8.24096763689315e-05
       0.17068581034 0.000751904635078568      0.0014925706036    1.52325652606e-05  0.00140419064452894 7.96489638857229e-05
      0.172107981505 0.000751926485079365     0.00161643442974    1.59373580224e-05  0.00155797694019597 7.70032975246344e-05
      0.173530147426 0.000751948515656829     0.00180153400168    1.69585580227e-05  0.00177017269831895 7.44669523874647e-05
      0.174952308062 0.000751970726792442     0.00205381716225    1.82992953111e-05  0.00202591472326392 7.20345342842191e-05
      0.176374463368  0.00075199311846747      0.0023343525766    1.97344470814e-05  0.00230861612302353 6.97009580239109e-05
      0.177796613302 0.000752015690663082     0.00260542551408    2.10763821058e-05  0.00260103370967903 6.74614272745109e-05
      0.179218757819 0.000752038443360243     0.00289958689434    2.24920938466e-05  0.00288628507615126 6.53114159125742e-05
      0.180640896878 0.000752061376539838     0.00321740446812    2.39825517742e-05  0.00314876152576911  6.3246650701465e-05
      0.182063030433 0.000752084490182517     0.00343099961467    2.49651513109e-05  0.00337489512432798 6.12630952354147e-05
      0.183485158443 0.000752107784268866     0.00358430526397    2.56621682408e-05  0.00355375110729088 5.93569349986465e-05
      0.184907280863 0.000752131258779252      0.0037512639166      2.641398538e-05  0.00367742968618171 5.75245635048518e-05
      0.186329397651 0.000752154913693944     0.00387658766861    2.69733282329e-05  0.00374127325995079 5.57625693854729e-05
      0.187751508763 0.000752178748993029     0.00385267463694    2.68668280435e-05  0.00374388558956594 5.40677243899155e-05
      0.189173614156  0.00075220276465646     0.00376766103801    2.64872359174e-05  0.00368697838052494  5.2436972202451e-05
      0.190595713786 0.000752226960664025     0.00367332014005    2.60639193999e-05  0.00357506778963553 5.08674180294328e-05
       0.19201780761 0.000752251336995379     0.00348570625226    2.52151940827e-05  0.00341504863508776 4.93563188881729e-05
      0.193439895585 0.000752275893630027     0.00333914599882    2.45448440255e-05  0.00321567759502779 4.79010745526947e-05
      0.194861977668 0.000752300630547327     0.00308701153477    2.33760521939e-05  0.00298699851680476 4.64992191030149e-05
      0.196284053814 0.000752325547726453     0.00285420755945    2.22766508554e-05  0.00273974322218057 4.51484130364232e-05
      0.197706123982 0.000752350645146498     0.00256368247262    2.08728404235e-05  0.00248473997883352 4.38464358901864e-05
      0.199128188127 0.000752375922786338     0.00231195354194    1.96222677466e-05  0.00223235923769642 4.25911793588729e-05
      0.200550246206 0.000752401380624735     0.00203928550175    1.82246477035e-05  0.00199202242777426 4.13806408449937e-05
      0.201972298176 0.000752427018640302      0.0018164982344    1.70414620999e-05   0.0017717947715849 4.02129174317413e-05
      0.203394343994 0.000752452836811504     0.00159668488852    1.58290040676e-05  0.00157807744230435 3.90862002388528e-05
      0.204816383616 0.000752478835116639     0.00142823927619    1.48627561179e-05  0.00141540824301153 3.79987691370838e-05
      0.206238416999 0.000752505013533874     0.00128250360926     1.3995115781e-05   0.0012863736733276 3.69489877931116e-05
      0.207660444099  0.00075253137204121      0.0011998195825    1.34864695972e-05  0.00119162912090923 3.59352990271495e-05
      0.209082464874 0.000752557910616538      0.0011205150117    1.29866515456e-05  0.00113001831749604 3.49562204550714e-05
       0.21050447928 0.000752584629237562     0.00109082085699    1.27957157118e-05  0.00109877844829694 3.40103404039499e-05
      0.211926487274 0.000752611527881857     0.00108626985584    1.27656916617e-05  0.00109381363538787 3.30963140727461e-05
      0.213348488811 0.000752638606526812     0.00109142915849     6.3819630991e-06  0.00111001709417472 3.22128599302674e-05
       0.21477048385 0.000752665865149744     0.00112026718402    6.87719049242e-06  0.00114162114046692  3.1358756324946e-05
      0.216192472347 0.000752693303727766     0.00116189757771    7.05034664085e-06   0.0011825543715597 3.05328383057475e-05
      0.217614454258 0.000752720922237841     0.00121623472667     7.2749655485e-06  0.00122678663670012 2.97339946262933e-05
       0.21903642954 0.000752748720656806     0.00125786512065    7.44612931396e-06  0.00126864466392864 2.89611649274512e-05
       0.22045839815 0.000752776698961349     0.00129284474508     7.5893713891e-06  0.00130308419413186 2.82133370865307e-05
      0.221880360044  0.00075280485712799     0.00133221135443    7.74968165455e-06  0.00132590794315654 2.74895447211014e-05
      0.223302315179 0.000752833195133124      0.0013433797814    7.79494488572e-06  0.00133392242476523 2.67888648360003e-05
      0.224724263513 0.000752861712953016     0.00132416013838    7.71661449338e-06  0.00132503039672422 2.61104156069053e-05
         0.226146205 0.000752890410563704      0.0013026424649     7.6287601863e-06   0.0012982592461798 2.54533542930199e-05
      0.227568139599 0.000752919287941181     0.00128050297122    7.53817077327e-06  0.00125372884940532 2.48168752619495e-05
      0.228990067266 0.000752948345061231     0.00119781443798    7.19851343166e-06  0.00119256520623885 2.42002081339117e-05
      0.230411987957 0.000752977581899491       0.001134456394    6.93603181628e-06  0.00111676837420073 2.36026160251191e-05
       0.23183390163 0.000753006998431492     0.00106001373391    6.62480067862e-06  0.00102904486101383 2.30233938896911e-05
      0.233255808241 0.000753036594632577     0.00094615309734    6.14183828876e-06 0.000932615652799532 2.24618669558887e-05
      0.234677707746 0.000753066370477943    0.000848486814714    5.71950179159e-06 0.000831011458587021 2.19173892460232e-05
      0.236099600102  0.00075309632594266    0.000743412765034     5.2542046191e-06 0.000727866568491018 2.13893421778386e-05
      0.237521485267 0.000753126461001672     0.00063814946533    4.77397584665e-06  0.00062672199565188 2.08771332423659e-05
      0.238943363196 0.000753156775629716    0.000536995583825    4.29479165684e-06  0.00053084736789967 2.03801947546442e-05
      0.240365233847 0.000753187269801442     0.00045000838202    3.86380973128e-06  0.00044308943558504 1.98979826680569e-05
      0.241787097175 0.000753217943491293    0.000363751142256    3.41238843721e-06 0.000365753170518673 1.94299754561405e-05
      0.243208953139 0.000753248796673652    0.000298697963644    3.04975269737e-06 0.000300519347425865 1.89756730494177e-05
      0.244630801693 0.000753279829322644    0.000242972083755    2.71741058142e-06 0.000248400351519769  1.8534595833507e-05
      0.246052642796  0.00075331104141236    0.000198736354524    2.43356797683e-06 0.000209733846026853  1.8106283693813e-05
      0.247474476404 0.000753342432916679    0.000174182577659    2.26554737987e-06 0.000184211984581181 1.76902951155846e-05
      0.248896302473 0.000753374003809332    0.000159767168989    2.16240641046e-06  0.00017094214774318  1.7286206327278e-05
      0.250318120961 0.000753405754063953    0.000153719294349    2.11814303233e-06 0.000168533809000096 1.68936104884418e-05
      0.251739931823 0.000753437683653959    0.000153051513857    2.11314362341e-06 0.000175205140034325 1.65121169211397e-05
      0.253161735017 0.000753469792552689     0.00017290379107    2.25593599085e-06 0.000188902379951549 1.61413503775461e-05
      0.254583530499 0.000753502080733295    0.000195486668809    2.41079482605e-06 0.000207424820771696 1.57809503475761e-05
      0.256005318226 0.000753534548168803    0.000217420690923    2.55480813452e-06 0.000228548480532674 1.54305703992997e-05
      0.257427098154 0.000753567194832071    0.000239514222915    2.69494330267e-06 0.000250142104112473 1.50898775536602e-05
      0.258848870241 0.000753600020695859    0.000256498017476     2.7995896412e-06  0.00027026999265663   1.475855168913e-05
      0.260270634443 0.000753633025732736    0.000275266165154    2.91238863737e-06 0.000287277245537503 1.44362849774952e-05
      0.261692390717 0.000753666209915148    0.000288951611052    2.99306016794e-06 0.000299854230320649 1.41227813458042e-05
      0.263114139019 0.000753699573215374    0.000300311991392    3.05910247919e-06 0.000307078399059777 1.38177559658014e-05
      0.264535879306  0.00075373311560557     0.00029936304069    3.05328890917e-06 0.000308432872346643 1.35209347673612e-05
      0.265957611535 0.000753766837057748    0.000293953207578    3.02171931466e-06 0.000303802448994977 1.32320539761396e-05
      0.267379335663 0.000753800737543776    0.000283379565175    2.95978246281e-06 0.000293448813138851 1.29508596732803e-05
      0.268801051645  0.00075383481703533    0.000266019974526    2.85657438288e-06 0.000277967655572306 1.26771073766081e-05
       0.27022275944 0.000753869075504036    0.000248254848844    2.74849659603e-06 0.000258231168294664  1.2410561640256e-05
