#      z (A) rho (1e-6/A2) irho (1e-6/A2)
-50.65302981  20.08812461   0.10780906
-50.55302981  20.08850599   0.10796189
-50.45302981  20.08889420   0.10811745
-50.35302981  20.08928934   0.10827580
-50.25302981  20.08969153   0.10843696
-50.15302981  20.09010086   0.10860099
-50.05302981  20.09051746   0.10876793
-49.95302981  20.09094144   0.10893783
-49.85302981  20.09137291   0.10911073
-49.75302981  20.09181199   0.10928669
-49.65302981  20.09225881   0.10946574
-49.55302981  20.09271347   0.10964793
-49.45302981  20.09317611   0.10983332
-49.35302981  20.09364684   0.11002196
-49.25302981  20.09412579   0.11021389
-49.15302981  20.09461309   0.11040916
-49.05302981  20.09510887   0.11060783
-48.95302981  20.09561324   0.11080995
-48.85302981  20.09612636   0.11101557
-48.75302981  20.09664834   0.11122474
-48.65302981  20.09717933   0.11143752
-48.55302981  20.09771945   0.11165396
-48.45302981  20.09826886   0.11187412
-48.35302981  20.09882768   0.11209805
-48.25302981  20.09939606   0.11232582
-48.15302981  20.09997414   0.11255747
-48.05302981  20.10056207   0.11279307
-47.95302981  20.10115999   0.11303267
-47.85302981  20.10176806   0.11327634
-47.75302981  20.10238642   0.11352414
-47.65302981  20.10301522   0.11377611
-47.55302981  20.10365463   0.11403234
-47.45302981  20.10430479   0.11429288
-47.35302981  20.10496586   0.11455778
-47.25302981  20.10563800   0.11482713
-47.15302981  20.10632138   0.11510098
-47.05302981  20.10701615   0.11537939
-46.95302981  20.10772249   0.11566244
-46.85302981  20.10844056   0.11595019
-46.75302981  20.10917052   0.11624270
-46.65302981  20.10991256   0.11654006
-46.55302981  20.11066684   0.11684232
-46.45302981  20.11143354   0.11714955
-46.35302981  20.11221283   0.11746183
-46.25302981  20.11300490   0.11777924
-46.15302981  20.11380992   0.11810183
-46.05302981  20.11462808   0.11842969
-45.95302981  20.11545957   0.11876289
-45.85302981  20.11630457   0.11910150
-45.75302981  20.11716326   0.11944560
-45.65302981  20.11803586   0.11979527
-45.55302981  20.11892253   0.12015059
-45.45302981  20.11982349   0.12051163
-45.35302981  20.12073893   0.12087847
-45.25302981  20.12166905   0.12125119
-45.15302981  20.12261405   0.12162988
-45.05302981  20.12357414   0.12201461
-44.95302981  20.12454952   0.12240547
-44.85302981  20.12554040   0.12280254
-44.75302981  20.12654700   0.12320591
-44.65302981  20.12756952   0.12361566
-44.55302981  20.12860819   0.12403188
-44.45302981  20.12966322   0.12445466
-44.35302981  20.13073482   0.12488408
-44.25302981  20.13182323   0.12532023
-44.15302981  20.13292866   0.12576321
-44.05302981  20.13405135   0.12621310
-43.95302981  20.13519152   0.12667000
-43.85302981  20.13634941   0.12713399
-43.75302981  20.13752525   0.12760518
-43.65302981  20.13871927   0.12808366
-43.55302981  20.13993171   0.12856952
-43.45302981  20.14116283   0.12906285
-43.35302981  20.14241285   0.12956377
-43.25302981  20.14368202   0.13007236
-43.15302981  20.14497060   0.13058873
-43.05302981  20.14627883   0.13111297
-42.95302981  20.14760697   0.13164519
-42.85302981  20.14895527   0.13218549
-42.75302981  20.15032399   0.13273397
-42.65302981  20.15171339   0.13329074
-42.55302981  20.15312373   0.13385590
-42.45302981  20.15455529   0.13442956
-42.35302981  20.15600832   0.13501183
-42.25302981  20.15748310   0.13560281
-42.15302981  20.15897990   0.13620262
-42.05302981  20.16049900   0.13681136
-41.95302981  20.16204068   0.13742915
-41.85302981  20.16360520   0.13805610
-41.75302981  20.16519287   0.13869232
-41.65302981  20.16680396   0.13933793
-41.55302981  20.16843876   0.13999303
-41.45302981  20.17009757   0.14065776
-41.35302981  20.17178067   0.14133223
-41.25302981  20.17348837   0.14201654
-41.15302981  20.17522095   0.14271084
-41.05302981  20.17697873   0.14341522
-40.95302981  20.17876201   0.14412983
-40.85302981  20.18057108   0.14485477
-40.75302981  20.18240627   0.14559018
-40.65302981  20.18426788   0.14633618
-40.55302981  20.18615623   0.14709289
-40.45302981  20.18807163   0.14786044
-40.35302981  20.19001441   0.14863896
-40.25302981  20.19198488   0.14942858
-40.15302981  20.19398337   0.15022942
-40.05302981  20.19601020   0.15104163
-39.95302981  20.19806572   0.15186533
-39.85302981  20.20015024   0.15270065
-39.75302981  20.20226411   0.15354773
-39.65302981  20.20440766   0.15440671
-39.55302981  20.20658124   0.15527772
-39.45302981  20.20878518   0.15616090
-39.35302981  20.21101984   0.15705638
-39.25302981  20.21328556   0.15796432
-39.15302981  20.21558269   0.15888484
-39.05302981  20.21791159   0.15981809
-38.95302981  20.22027261   0.16076421
-38.85302981  20.22266611   0.16172335
-38.75302981  20.22509245   0.16269565
-38.65302981  20.22755200   0.16368125
-38.55302981  20.23004513   0.16468032
-38.45302981  20.23257221   0.16569298
-38.35302981  20.23513360   0.16671940
-38.25302981  20.23772968   0.16775971
-38.15302981  20.24036083   0.16881408
-38.05302981  20.24302743   0.16988266
-37.95302981  20.24572987   0.17096560
-37.85302981  20.24846852   0.17206305
-37.75302981  20.25124378   0.17317517
-37.65302981  20.25405603   0.17430211
-37.55302981  20.25690568   0.17544404
-37.45302981  20.25979311   0.17660111
-37.35302981  20.26271873   0.17777348
-37.25302981  20.26568293   0.17896131
-37.15302981  20.26868612   0.18016477
-37.05302981  20.27172870   0.18138401
-36.95302981  20.27481109   0.18261920
-36.85302981  20.27793370   0.18387051
-36.75302981  20.28109693   0.18513810
-36.65302981  20.28430121   0.18642214
-36.55302981  20.28754695   0.18772279
-36.45302981  20.29083457   0.18904023
-36.35302981  20.29416450   0.19037462
-36.25302981  20.29753717   0.19172614
-36.15302981  20.30095300   0.19309495
-36.05302981  20.30441243   0.19448123
-35.95302981  20.30791588   0.19588516
-35.85302981  20.31146379   0.19730690
-35.75302981  20.31505661   0.19874663
-35.65302981  20.31869477   0.20020454
-35.55302981  20.32237872   0.20168079
-35.45302981  20.32610889   0.20317557
-35.35302981  20.32988575   0.20468906
-35.25302981  20.33370973   0.20622143
-35.15302981  20.33758129   0.20777286
-35.05302981  20.34150089   0.20934355
-34.95302981  20.34546898   0.21093367
-34.85302981  20.34948603   0.21254340
-34.75302981  20.35355248   0.21417293
-34.65302981  20.35766881   0.21582246
-34.55302981  20.36183548   0.21749215
-34.45302981  20.36605296   0.21918220
-34.35302981  20.37032172   0.22089281
-34.25302981  20.37464223   0.22262415
-34.15302981  20.37901497   0.22437642
-34.05302981  20.38344040   0.22614980
-33.95302981  20.38791901   0.22794450
-33.85302981  20.39245129   0.22976070
-33.75302981  20.39703770   0.23159860
-33.65302981  20.40167874   0.23345838
-33.55302981  20.40637489   0.23534025
-33.45302981  20.41112664   0.23724440
-33.35302981  20.41593447   0.23917103
-33.25302981  20.42079889   0.24112032
-33.15302981  20.42572037   0.24309249
-33.05302981  20.43069943   0.24508773
-32.95302981  20.43573655   0.24710624
-32.85302981  20.44083223   0.24914821
-32.75302981  20.44598697   0.25121385
-32.65302981  20.45120128   0.25330336
-32.55302981  20.45647566   0.25541694
-32.45302981  20.46181061   0.25755479
-32.35302981  20.46720664   0.25971712
-32.25302981  20.47266425   0.26190413
-32.15302981  20.47818396   0.26411602
-32.05302981  20.48376628   0.26635300
-31.95302981  20.48941171   0.26861528
-31.85302981  20.49512078   0.27090305
-31.75302981  20.50089399   0.27321653
-31.65302981  20.50673187   0.27555592
-31.55302981  20.51263493   0.27792142
-31.45302981  20.51860368   0.28031326
-31.35302981  20.52463866   0.28273163
-31.25302981  20.53074037   0.28517675
-31.15302981  20.53690934   0.28764881
-31.05302981  20.54314609   0.29014804
-30.95302981  20.54945115   0.29267465
-30.85302981  20.55582504   0.29522883
-30.75302981  20.56226829   0.29781081
-30.65302981  20.56878142   0.30042079
-30.55302981  20.57536496   0.30305899
-30.45302981  20.58201943   0.30572561
-30.35302981  20.58874537   0.30842087
-30.25302981  20.59554331   0.31114498
-30.15302981  20.60241377   0.31389815
-30.05302981  20.60935728   0.31668060
-29.95302981  20.61637438   0.31949253
-29.85302981  20.62346560   0.32233417
-29.75302981  20.63063146   0.32520572
-29.65302981  20.63787250   0.32810739
-29.55302981  20.64518926   0.33103941
-29.45302981  20.65258226   0.33400197
-29.35302981  20.66005203   0.33699531
-29.25302981  20.66759911   0.34001962
-29.15302981  20.67522403   0.34307512
-29.05302981  20.68292733   0.34616204
-28.95302981  20.69070954   0.34928057
-28.85302981  20.69857118   0.35243094
-28.75302981  20.70651279   0.35561335
-28.65302981  20.71453491   0.35882802
-28.55302981  20.72263807   0.36207516
-28.45302981  20.73082279   0.36535500
-28.35302981  20.73908960   0.36866773
-28.25302981  20.74743905   0.37201357
-28.15302981  20.75587166   0.37539273
-28.05302981  20.76438795   0.37880543
-27.95302981  20.77298846   0.38225188
-27.85302981  20.78167371   0.38573229
-27.75302981  20.79044424   0.38924687
-27.65302981  20.79930057   0.39279583
-27.55302981  20.80824322   0.39637939
-27.45302981  20.81727272   0.39999774
-27.35302981  20.82638959   0.40365111
-27.25302981  20.83559436   0.40733970
-27.15302981  20.84488755   0.41106372
-27.05302981  20.85426967   0.41482339
-26.95302981  20.86374125   0.41861890
-26.85302981  20.87330280   0.42245046
-26.75302981  20.88295485   0.42631828
-26.65302981  20.89269789   0.43022258
-26.55302981  20.90253246   0.43416354
-26.45302981  20.91245905   0.43814139
-26.35302981  20.92247818   0.44215632
-26.25302981  20.93259036   0.44620853
-26.15302981  20.94279609   0.45029823
-26.05302981  20.95309588   0.45442563
-25.95302981  20.96349022   0.45859091
-25.85302981  20.97397963   0.46279429
-25.75302981  20.98456459   0.46703596
-25.65302981  20.99524561   0.47131612
-25.55302981  21.00602317   0.47563498
-25.45302981  21.01689777   0.47999271
-25.35302981  21.02786990   0.48438953
-25.25302981  21.03894004   0.48882562
-25.15302981  21.05010867   0.49330119
-25.05302981  21.06137629   0.49781641
-24.95302981  21.07274336   0.50237150
-24.85302981  21.08421036   0.50696662
-24.75302981  21.09577777   0.51160199
-24.65302981  21.10744605   0.51627777
-24.55302981  21.11921567   0.52099417
-24.45302981  21.13108710   0.52575136
-24.35302981  21.14306079   0.53054953
-24.25302981  21.15513721   0.53538887
-24.15302981  21.16731681   0.54026955
-24.05302981  21.17960003   0.54519175
-23.95302981  21.19198732   0.55015567
-23.85302981  21.20447914   0.55516146
-23.75302981  21.21707591   0.56020932
-23.65302981  21.22977808   0.56529941
-23.55302981  21.24258608   0.57043191
-23.45302981  21.25550033   0.57560699
-23.35302981  21.26852126   0.58082482
-23.25302981  21.28164930   0.58608556
-23.15302981  21.29488485   0.59138939
-23.05302981  21.30822833   0.59673647
-22.95302981  21.32168015   0.60212697
-22.85302981  21.33524072   0.60756104
-22.75302981  21.34891043   0.61303885
-22.65302981  21.36268967   0.61856056
-22.55302981  21.37657885   0.62412631
-22.45302981  21.39057833   0.62973627
-22.35302981  21.40468852   0.63539059
-22.25302981  21.41890977   0.64108942
-22.15302981  21.43324247   0.64683290
-22.05302981  21.44768697   0.65262119
-21.95302981  21.46224365   0.65845444
-21.85302981  21.47691286   0.66433277
-21.75302981  21.49169495   0.67025634
-21.65302981  21.50659026   0.67622528
-21.55302981  21.52159913   0.68223973
-21.45302981  21.53672191   0.68829982
-21.35302981  21.55195892   0.69440569
-21.25302981  21.56731049   0.70055746
-21.15302981  21.58277693   0.70675527
-21.05302981  21.59835856   0.71299923
-20.95302981  21.61405568   0.71928948
-20.85302981  21.62986860   0.72562613
-20.75302981  21.64579761   0.73200930
-20.65302981  21.66184300   0.73843911
-20.55302981  21.67800506   0.74491566
-20.45302981  21.69428406   0.75143908
-20.35302981  21.71068027   0.75800947
-20.25302981  21.72719396   0.76462694
-20.15302981  21.74382538   0.77129159
-20.05302981  21.76057479   0.77800351
-19.95302981  21.77744244   0.78476282
-19.85302981  21.79442855   0.79156960
-19.75302981  21.81153337   0.79842395
-19.65302981  21.82875712   0.80532595
-19.55302981  21.84610002   0.81227570
-19.45302981  21.86356227   0.81927328
-19.35302981  21.88114409   0.82631878
-19.25302981  21.89884567   0.83341227
-19.15302981  21.91666721   0.84055382
-19.05302981  21.93460888   0.84774351
-18.95302981  21.95267086   0.85498142
-18.85302981  21.97085332   0.86226761
-18.75302981  21.98915643   0.86960214
-18.65302981  22.00758033   0.87698508
-18.55302981  22.02612518   0.88441648
-18.45302981  22.04479111   0.89189641
-18.35302981  22.06357825   0.89942491
-18.25302981  22.08248673   0.90700203
-18.15302981  22.10151667   0.91462782
-18.05302981  22.12066816   0.92230233
-17.95302981  22.13994133   0.93002559
-17.85302981  22.15933624   0.93779764
-17.75302981  22.17885300   0.94561851
-17.65302981  22.19849168   0.95348824
-17.55302981  22.21825234   0.96140685
-17.45302981  22.23813504   0.96937437
-17.35302981  22.25813984   0.97739082
-17.25302981  22.27826679   0.98545621
-17.15302981  22.29851591   0.99357056
-17.05302981  22.31888723   1.00173388
-16.95302981  22.33938078   1.00994618
-16.85302981  22.35999656   1.01820746
-16.75302981  22.38073457   1.02651773
-16.65302981  22.40159481   1.03487697
-16.55302981  22.42257726   1.04328519
-16.45302981  22.44368190   1.05174237
-16.35302981  22.46490870   1.06024850
-16.25302981  22.48625760   1.06880356
-16.15302981  22.50772857   1.07740754
-16.05302981  22.52932154   1.08606041
-15.95302981  22.55103644   1.09476213
-15.85302981  22.57287320   1.10351269
-15.75302981  22.59483173   1.11231205
-15.65302981  22.61691193   1.12116016
-15.55302981  22.63911370   1.13005699
-15.45302981  22.66143693   1.13900249
-15.35302981  22.68388149   1.14799661
-15.25302981  22.70644725   1.15703930
-15.15302981  22.72913407   1.16613050
-15.05302981  22.75194180   1.17527016
-14.95302981  22.77487028   1.18445820
-14.85302981  22.79791934   1.19369456
-14.75302981  22.82108880   1.20297916
-14.65302981  22.84437847   1.21231194
-14.55302981  22.86778816   1.22169282
-14.45302981  22.89131765   1.23112170
-14.35302981  22.91496674   1.24059851
-14.25302981  22.93873520   1.25012315
-14.15302981  22.96262279   1.25969553
-14.05302981  22.98662926   1.26931555
-13.95302981  23.01075436   1.27898311
-13.85302981  23.03499783   1.28869810
-13.75302981  23.05935940   1.29846042
-13.65302981  23.08383877   1.30826994
-13.55302981  23.10843566   1.31812656
-13.45302981  23.13314977   1.32803014
-13.35302981  23.15798078   1.33798058
-13.25302981  23.18292836   1.34797773
-13.15302981  23.20799220   1.35802146
-13.05302981  23.23317194   1.36811164
-12.95302981  23.25846723   1.37824812
-12.85302981  23.28387772   1.38843077
-12.75302981  23.30940303   1.39865943
-12.65302981  23.33504278   1.40893395
-12.55302981  23.36079659   1.41925417
-12.45302981  23.38666405   1.42961993
-12.35302981  23.41264475   1.44003108
-12.25302981  23.43873827   1.45048744
-12.15302981  23.46494419   1.46098883
-12.05302981  23.49126205   1.47153509
-11.95302981  23.51769143   1.48212603
-11.85302981  23.54423185   1.49276147
-11.75302981  23.57088285   1.50344122
-11.65302981  23.59764395   1.51416509
-11.55302981  23.62451467   1.52493289
-11.45302981  23.65149449   1.53574441
-11.35302981  23.67858293   1.54659945
-11.25302981  23.70577946   1.55749781
-11.15302981  23.73308355   1.56843928
-11.05302981  23.76049468   1.57942363
-10.95302981  23.78801228   1.59045065
-10.85302981  23.81563581   1.60152012
-10.75302981  23.84336471   1.61263182
-10.65302981  23.87119840   1.62378550
-10.55302981  23.89913628   1.63498094
-10.45302981  23.92717778   1.64621790
-10.35302981  23.95532229   1.65749614
-10.25302981  23.98356919   1.66881541
-10.15302981  24.01191787   1.68017547
-10.05302981  24.04036769   1.69157605
 -9.95302981  24.06891801   1.70301691
 -9.85302981  24.09756818   1.71449778
 -9.75302981  24.12631754   1.72601840
 -9.65302981  24.15516543   1.73757851
 -9.55302981  24.18411117   1.74917782
 -9.45302981  24.21315406   1.76081606
 -9.35302981  24.24229342   1.77249296
 -9.25302981  24.27152853   1.78420824
 -9.15302981  24.30085869   1.79596160
 -9.05302981  24.33028317   1.80775275
 -8.95302981  24.35980123   1.81958141
 -8.85302981  24.38941215   1.83144728
 -8.75302981  24.41911516   1.84335005
 -8.65302981  24.44890951   1.85528943
 -8.55302981  24.47879444   1.86726510
 -8.45302981  24.50876916   1.87927675
 -8.35302981  24.53883289   1.89132407
 -8.25302981  24.56898483   1.90340674
 -8.15302981  24.59922419   1.91552445
 -8.05302981  24.62955016   1.92767685
 -7.95302981  24.65996191   1.93986364
 -7.85302981  24.69045863   1.95208447
 -7.75302981  24.72103946   1.96433900
 -7.65302981  24.75170358   1.97662692
 -7.55302981  24.78245013   1.98894786
 -7.45302981  24.81327824   2.00130149
 -7.35302981  24.84418705   2.01368746
 -7.25302981  24.87517569   2.02610542
 -7.15302981  24.90624327   2.03855501
 -7.05302981  24.93738891   2.05103588
 -6.95302981  24.96861169   2.06354766
 -6.85302981  24.99991071   2.07609000
 -6.75302981  25.03128507   2.08866252
 -6.65302981  25.06273383   2.10126486
 -6.55302981  25.09425607   2.11389665
 -6.45302981  25.12585086   2.12655750
 -6.35302981  25.15751724   2.13924705
 -6.25302981  25.18925427   2.15196490
 -6.15302981  25.22106099   2.16471068
 -6.05302981  25.25293643   2.17748401
 -5.95302981  25.28487962   2.19028448
 -5.85302981  25.31688959   2.20311171
 -5.75302981  25.34896534   2.21596530
 -5.65302981  25.38110589   2.22884486
 -5.55302981  25.41331023   2.24174998
 -5.45302981  25.44557737   2.25468026
 -5.35302981  25.47790628   2.26763530
 -5.25302981  25.51029596   2.28061469
 -5.15302981  25.54274538   2.29361802
 -5.05302981  25.57525350   2.30664487
 -4.95302981  25.60781929   2.31969484
 -4.85302981  25.64044171   2.33276749
 -4.75302981  25.67311972   2.34586242
 -4.65302981  25.70585225   2.35897920
 -4.55302981  25.73863825   2.37211741
 -4.45302981  25.77147665   2.38527661
 -4.35302981  25.80436639   2.39845639
 -4.25302981  25.83730639   2.41165631
 -4.15302981  25.87029556   2.42487593
 -4.05302981  25.90333283   2.43811483
 -3.95302981  25.93641711   2.45137256
 -3.85302981  25.96954729   2.46464869
 -3.75302981  26.00272227   2.47794277
 -3.65302981  26.03594096   2.49125437
 -3.55302981  26.06920225   2.50458303
 -3.45302981  26.10250501   2.51792832
 -3.35302981  26.13584813   2.53128978
 -3.25302981  26.16923050   2.54466697
 -3.15302981  26.20265098   2.55805942
 -3.05302981  26.23610844   2.57146670
 -2.95302981  26.26960176   2.58488835
 -2.85302981  26.30312978   2.59832390
 -2.75302981  26.33669138   2.61177291
 -2.65302981  26.37028540   2.62523491
 -2.55302981  26.40391070   2.63870945
 -2.45302981  26.43756613   2.65219606
 -2.35302981  26.47125052   2.66569428
 -2.25302981  26.50496274   2.67920364
 -2.15302981  26.53870160   2.69272368
 -2.05302981  26.57246596   2.70625394
 -1.95302981  26.60625464   2.71979395
 -1.85302981  26.64006647   2.73334323
 -1.75302981  26.67390030   2.74690133
 -1.65302981  26.70775493   2.76046777
 -1.55302981  26.74162920   2.77404207
 -1.45302981  26.77552192   2.78762377
 -1.35302981  26.80943193   2.80121240
 -1.25302981  26.84335803   2.81480747
 -1.15302981  26.87729905   2.82840852
 -1.05302981  26.91125380   2.84201508
 -0.95302981  26.94522110   2.85562666
 -0.85302981  26.97919975   2.86924279
 -0.75302981  27.01318857   2.88286300
 -0.65302981  27.04718637   2.89648681
 -0.55302981  27.08119196   2.91011373
 -0.45302981  27.11520414   2.92374330
 -0.35302981  27.14922173   2.93737504
 -0.25302981  27.18324354   2.95100847
 -0.15302981  27.21726836   2.96464310
 -0.05302981  27.25129501   2.97827847
  0.04697019  27.28532229   2.99191409
  0.14697019  27.31934901   3.00554948
  0.24697019  27.35337398   3.01918418
  0.34697019  27.38739600   3.03281769
