#      z (A) rho (1e-6/A2) irho (1e-6/A2) rhoM (1e-6/A2) theta (degrees)
-155.70335250   2.14915918   0.00000000   0.00000000 270.00000000
-155.60335250   2.14916654   0.00000000   0.00000000 270.00000000
-155.50335250   2.14917393   0.00000000   0.00000000 270.00000000
-155.40335250   2.14918137   0.00000000   0.00000000 270.00000000
-155.30335250   2.14918885   0.00000000   0.00000000 270.00000000
-155.20335250   2.14919638   0.00000000   0.00000000 270.00000000
-155.10335250   2.14920395   0.00000000   0.00000000 270.00000000
-155.00335250   2.14921156   0.00000000   0.00000000 270.00000000
-154.90335250   2.14921922   0.00000000   0.00000000 270.00000000
-154.80335250   2.14922692   0.00000000   0.00000000 270.00000000
-154.70335250   2.14923467   0.00000000   0.00000000 270.00000000
-154.60335250   2.14924245   0.00000000   0.00000000 270.00000000
-154.50335250   2.14925029   0.00000000   0.00000000 270.00000000
-154.40335250   2.14925817   0.00000000   0.00000000 270.00000000
-154.30335250   2.14926609   0.00000000   0.00000000 270.00000000
-154.20335250   2.14927407   0.00000000   0.00000000 270.00000000
-154.10335250   2.14928208   0.00000000   0.00000000 270.00000000
-154.00335250   2.14929014   0.00000000   0.00000000 270.00000000
-153.90335250   2.14929825   0.00000000   0.00000000 270.00000000
-153.80335250   2.14930641   0.00000000   0.00000000 270.00000000
-153.70335250   2.14931461   0.00000000   0.00000000 270.00000000
-153.60335250   2.14932286   0.00000000   0.00000000 270.00000000
-153.50335250   2.14933115   0.00000000   0.00000000 270.00000000
-153.40335250   2.14933950   0.00000000   0.00000000 270.00000000
-153.30335250   2.14934789   0.00000000   0.00000000 270.00000000
-153.20335250   2.14935633   0.00000000   0.00000000 270.00000000
-153.10335250   2.14936481   0.00000000   0.00000000 270.00000000
-153.00335250   2.14937335   0.00000000   0.00000000 270.00000000
-152.90335250   2.14938193   0.00000000   0.00000000 270.00000000
-152.80335250   2.14939057   0.00000000   0.00000000 270.00000000
-152.70335250   2.14939925   0.00000000   0.00000000 270.00000000
-152.60335250   2.14940798   0.00000000   0.00000000 270.00000000
-152.50335250   2.14941676   0.00000000   0.00000000 270.00000000
-152.40335250   2.14942559   0.00000000   0.00000000 270.00000000
-152.30335250   2.14943447   0.00000000   0.00000000 270.00000000
-152.20335250   2.14944340   0.00000000   0.00000000 270.00000000
-152.10335250   2.14945238   0.00000000   0.00000000 270.00000000
-152.00335250   2.14946142   0.00000000   0.00000000 270.00000000
-151.90335250   2.14947050   0.00000000   0.00000000 270.00000000
-151.80335250   2.14947963   0.00000000   0.00000000 270.00000000
-151.70335250   2.14948882   0.00000000   0.00000000 270.00000000
-151.60335250   2.14949806   0.00000000   0.00000000 270.00000000
-151.50335250   2.14950735   0.00000000   0.00000000 270.00000000
-151.40335250   2.14951669   0.00000000   0.00000000 270.00000000
-151.30335250   2.14952609   0.00000000   0.00000000 270.00000000
-151.20335250   2.14953554   0.00000000   0.00000000 270.00000000
-151.10335250   2.14954504   0.00000000   0.00000000 270.00000000
-151.00335250   2.14955460   0.00000000   0.00000000 270.00000000
-150.90335250   2.14956420   0.00000000   0.00000000 270.00000000
-150.80335250   2.14957387   0.00000000   0.00000000 270.00000000
-150.70335250   2.14958358   0.00000000   0.00000000 270.00000000
-150.60335250   2.14959336   0.00000000   0.00000000 270.00000000
-150.50335250   2.14960318   0.00000000   0.00000000 270.00000000
-150.40335250   2.14961307   0.00000000   0.00000000 270.00000000
-150.30335250   2.14962300   0.00000000   0.00000000 270.00000000
-150.20335250   2.14963299   0.00000000   0.00000000 270.00000000
-150.10335250   2.14964304   0.00000000   0.00000000 270.00000000
-150.00335250   2.14965315   0.00000000   0.00000000 270.00000000
-149.90335250   2.14966331   0.00000000   0.00000000 270.00000000
-149.80335250   2.14967353   0.00000000   0.00000000 270.00000000
-149.70335250   2.14968380   0.00000000   0.00000000 270.00000000
-149.60335250   2.14969413   0.00000000   0.00000000 270.00000000
-149.50335250   2.14970452   0.00000000   0.00000000 270.00000000
-149.40335250   2.14971497   0.00000000   0.00000000 270.00000000
-149.30335250   2.14972548   0.00000000   0.00000000 270.00000000
-149.20335250   2.14973604   0.00000000   0.00000000 270.00000000
-149.10335250   2.14974666   0.00000000   0.00000000 270.00000000
-149.00335250   2.14975734   0.00000000   0.00000000 270.00000000
-148.90335250   2.14976808   0.00000000   0.00000000 270.00000000
-148.80335250   2.14977888   0.00000000   0.00000000 270.00000000
-148.70335250   2.14978974   0.00000000   0.00000000 270.00000000
-148.60335250   2.14980066   0.00000000   0.00000000 270.00000000
-148.50335250   2.14981165   0.00000000   0.00000000 270.00000000
-148.40335250   2.14982269   0.00000000   0.00000000 270.00000000
-148.30335250   2.14983379   0.00000000   0.00000000 270.00000000
-148.20335250   2.14984495   0.00000000   0.00000000 270.00000000
-148.10335250   2.14985618   0.00000000   0.00000000 270.00000000
-148.00335250   2.14986746   0.00000000   0.00000000 270.00000000
-147.90335250   2.14987881   0.00000000   0.00000000 270.00000000
-147.80335250   2.14989023   0.00000000   0.00000000 270.00000000
-147.70335250   2.14990170   0.00000000   0.00000000 270.00000000
-147.60335250   2.14991324   0.00000000   0.00000000 270.00000000
-147.50335250   2.14992484   0.00000000   0.00000000 270.00000000
-147.40335250   2.14993650   0.00000000   0.00000000 270.00000000
-147.30335250   2.14994823   0.00000000   0.00000000 270.00000000
-147.20335250   2.14996003   0.00000000   0.00000000 270.00000000
-147.10335250   2.14997188   0.00000000   0.00000000 270.00000000
-147.00335250   2.14998381   0.00000000   0.00000000 270.00000000
-146.90335250   2.14999579   0.00000000   0.00000000 270.00000000
-146.80335250   2.15000785   0.00000000   0.00000000 270.00000000
-146.70335250   2.15001997   0.00000000   0.00000000 270.00000000
-146.60335250   2.15003215   0.00000000   0.00000000 270.00000000
-146.50335250   2.15004440   0.00000000   0.00000000 270.00000000
-146.40335250   2.15005672   0.00000000   0.00000000 270.00000000
-146.30335250   2.15006911   0.00000000   0.00000000 270.00000000
-146.20335250   2.15008156   0.00000000   0.00000000 270.00000000
-146.10335250   2.15009408   0.00000000   0.00000000 270.00000000
-146.00335250   2.15010667   0.00000000   0.00000000 270.00000000
-145.90335250   2.15011933   0.00000000   0.00000000 270.00000000
-145.80335250   2.15013206   0.00000000   0.00000000 270.00000000
-145.70335250   2.15014485   0.00000000   0.00000000 270.00000000
-145.60335250   2.15015772   0.00000000   0.00000000 270.00000000
-145.50335250   2.15017065   0.00000000   0.00000000 270.00000000
-145.40335250   2.15018366   0.00000000   0.00000000 270.00000000
-145.30335250   2.15019673   0.00000000   0.00000000 270.00000000
-145.20335250   2.15020988   0.00000000   0.00000000 270.00000000
-145.10335250   2.15022309   0.00000000   0.00000000 270.00000000
-145.00335250   2.15023638   0.00000000   0.00000000 270.00000000
-144.90335250   2.15024974   0.00000000   0.00000000 270.00000000
-144.80335250   2.15026317   0.00000000   0.00000000 270.00000000
-144.70335250   2.15027668   0.00000000   0.00000000 270.00000000
-144.60335250   2.15029025   0.00000000   0.00000000 270.00000000
-144.50335250   2.15030390   0.00000000   0.00000000 270.00000000
-144.40335250   2.15031763   0.00000000   0.00000000 270.00000000
-144.30335250   2.15033143   0.00000000   0.00000000 270.00000000
-144.20335250   2.15034530   0.00000000   0.00000000 270.00000000
-144.10335250   2.15035924   0.00000000   0.00000000 270.00000000
-144.00335250   2.15037326   0.00000000   0.00000000 270.00000000
-143.90335250   2.15038736   0.00000000   0.00000000 270.00000000
-143.80335250   2.15040153   0.00000000   0.00000000 270.00000000
-143.70335250   2.15041578   0.00000000   0.00000000 270.00000000
-143.60335250   2.15043010   0.00000000   0.00000000 270.00000000
-143.50335250   2.15044450   0.00000000   0.00000000 270.00000000
-143.40335250   2.15045898   0.00000000   0.00000000 270.00000000
-143.30335250   2.15047353   0.00000000   0.00000000 270.00000000
-143.20335250   2.15048816   0.00000000   0.00000000 270.00000000
-143.10335250   2.15050287   0.00000000   0.00000000 270.00000000
-143.00335250   2.15051766   0.00000000   0.00000000 270.00000000
-142.90335250   2.15053253   0.00000000   0.00000000 270.00000000
-142.80335250   2.15054748   0.00000000   0.00000000 270.00000000
-142.70335250   2.15056250   0.00000000   0.00000000 270.00000000
-142.60335250   2.15057761   0.00000000   0.00000000 270.00000000
-142.50335250   2.15059279   0.00000000   0.00000000 270.00000000
-142.40335250   2.15060806   0.00000000   0.00000000 270.00000000
-142.30335250   2.15062340   0.00000000   0.00000000 270.00000000
-142.20335250   2.15063883   0.00000000   0.00000000 270.00000000
-142.10335250   2.15065434   0.00000000   0.00000000 270.00000000
-142.00335250   2.15066993   0.00000000   0.00000000 270.00000000
-141.90335250   2.15068561   0.00000000   0.00000000 270.00000000
-141.80335250   2.15070137   0.00000000   0.00000000 270.00000000
-141.70335250   2.15071721   0.00000000   0.00000000 270.00000000
-141.60335250   2.15073313   0.00000000   0.00000000 270.00000000
-141.50335250   2.15074914   0.00000000   0.00000000 270.00000000
-141.40335250   2.15076523   0.00000000   0.00000000 270.00000000
-141.30335250   2.15078141   0.00000000   0.00000000 270.00000000
-141.20335250   2.15079767   0.00000000   0.00000000 270.00000000
-141.10335250   2.15081402   0.00000000   0.00000000 270.00000000
-141.00335250   2.15083045   0.00000000   0.00000000 270.00000000
-140.90335250   2.15084697   0.00000000   0.00000000 270.00000000
-140.80335250   2.15086357   0.00000000   0.00000000 270.00000000
-140.70335250   2.15088027   0.00000000   0.00000000 270.00000000
-140.60335250   2.15089705   0.00000000   0.00000000 270.00000000
-140.50335250   2.15091392   0.00000000   0.00000000 270.00000000
-140.40335250   2.15093087   0.00000000   0.00000000 270.00000000
-140.30335250   2.15094792   0.00000000   0.00000000 270.00000000
-140.20335250   2.15096505   0.00000000   0.00000000 270.00000000
-140.10335250   2.15098227   0.00000000   0.00000000 270.00000000
-140.00335250   2.15099959   0.00000000   0.00000000 270.00000000
-139.90335250   2.15101699   0.00000000   0.00000000 270.00000000
-139.80335250   2.15103449   0.00000000   0.00000000 270.00000000
-139.70335250   2.15105207   0.00000000   0.00000000 270.00000000
-139.60335250   2.15106975   0.00000000   0.00000000 270.00000000
-139.50335250   2.15108752   0.00000000   0.00000000 270.00000000
-139.40335250   2.15110538   0.00000000   0.00000000 270.00000000
-139.30335250   2.15112333   0.00000000   0.00000000 270.00000000
-139.20335250   2.15114138   0.00000000   0.00000000 270.00000000
-139.10335250   2.15115952   0.00000000   0.00000000 270.00000000
-139.00335250   2.15117775   0.00000000   0.00000000 270.00000000
-138.90335250   2.15119608   0.00000000   0.00000000 270.00000000
-138.80335250   2.15121450   0.00000000   0.00000000 270.00000000
-138.70335250   2.15123302   0.00000000   0.00000000 270.00000000
-138.60335250   2.15125163   0.00000000   0.00000000 270.00000000
-138.50335250   2.15127034   0.00000000   0.00000000 270.00000000
-138.40335250   2.15128915   0.00000000   0.00000000 270.00000000
-138.30335250   2.15130805   0.00000000   0.00000000 270.00000000
-138.20335250   2.15132705   0.00000000   0.00000000 270.00000000
-138.10335250   2.15134615   0.00000000   0.00000000 270.00000000
-138.00335250   2.15136535   0.00000000   0.00000000 270.00000000
-137.90335250   2.15138464   0.00000000   0.00000000 270.00000000
-137.80335250   2.15140404   0.00000000   0.00000000 270.00000000
-137.70335250   2.15142353   0.00000000   0.00000000 270.00000000
-137.60335250   2.15144312   0.00000000   0.00000000 270.00000000
-137.50335250   2.15146282   0.00000000   0.00000000 270.00000000
-137.40335250   2.15148261   0.00000000   0.00000000 270.00000000
-137.30335250   2.15150251   0.00000000   0.00000000 270.00000000
-137.20335250   2.15152251   0.00000000   0.00000000 270.00000000
-137.10335250   2.15154260   0.00000000   0.00000000 270.00000000
-137.00335250   2.15156281   0.00000000   0.00000000 270.00000000
-136.90335250   2.15158311   0.00000000   0.00000000 270.00000000
-136.80335250   2.15160352   0.00000000   0.00000000 270.00000000
-136.70335250   2.15162403   0.00000000   0.00000000 270.00000000
-136.60335250   2.15164465   0.00000000   0.00000000 270.00000000
-136.50335250   2.15166537   0.00000000   0.00000000 270.00000000
-136.40335250   2.15168620   0.00000000   0.00000000 270.00000000
-136.30335250   2.15170713   0.00000000   0.00000000 270.00000000
-136.20335250   2.15172817   0.00000000   0.00000000 270.00000000
-136.10335250   2.15174931   0.00000000   0.00000000 270.00000000
-136.00335250   2.15177057   0.00000000   0.00000000 270.00000000
-135.90335250   2.15179193   0.00000000   0.00000000 270.00000000
-135.80335250   2.15181340   0.00000000   0.00000000 270.00000000
-135.70335250   2.15183497   0.00000000   0.00000000 270.00000000
-135.60335250   2.15185666   0.00000000   0.00000000 270.00000000
-135.50335250   2.15187845   0.00000000   0.00000000 270.00000000
-135.40335250   2.15190036   0.00000000   0.00000000 270.00000000
-135.30335250   2.15192237   0.00000000   0.00000000 270.00000000
-135.20335250   2.15194450   0.00000000   0.00000000 270.00000000
-135.10335250   2.15196674   0.00000000   0.00000000 270.00000000
-135.00335250   2.15198909   0.00000000   0.00000000 270.00000000
-134.90335250   2.15201155   0.00000000   0.00000000 270.00000000
-134.80335250   2.15203412   0.00000000   0.00000000 270.00000000
-134.70335250   2.15205681   0.00000000   0.00000000 270.00000000
-134.60335250   2.15207961   0.00000000   0.00000000 270.00000000
-134.50335250   2.15210253   0.00000000   0.00000000 270.00000000
-134.40335250   2.15212556   0.00000000   0.00000000 270.00000000
-134.30335250   2.15214870   0.00000000   0.00000000 270.00000000
-134.20335250   2.15217196   0.00000000   0.00000000 270.00000000
-134.10335250   2.15219534   0.00000000   0.00000000 270.00000000
-134.00335250   2.15221884   0.00000000   0.00000000 270.00000000
-133.90335250   2.15224245   0.00000000   0.00000000 270.00000000
-133.80335250   2.15226618   0.00000000   0.00000000 270.00000000
-133.70335250   2.15229002   0.00000000   0.00000000 270.00000000
-133.60335250   2.15231399   0.00000000   0.00000000 270.00000000
-133.50335250   2.15233807   0.00000000   0.00000000 270.00000000
-133.40335250   2.15236228   0.00000000   0.00000000 270.00000000
-133.30335250   2.15238660   0.00000000   0.00000000 270.00000000
-133.20335250   2.15241105   0.00000000   0.00000000 270.00000000
-133.10335250   2.15243562   0.00000000   0.00000000 270.00000000
-133.00335250   2.15246030   0.00000000   0.00000000 270.00000000
-132.90335250   2.15248511   0.00000000   0.00000000 270.00000000
-132.80335250   2.15251005   0.00000000   0.00000000 270.00000000
-132.70335250   2.15253510   0.00000000   0.00000000 270.00000000
-132.60335250   2.15256028   0.00000000   0.00000000 270.00000000
-132.50335250   2.15258559   0.00000000   0.00000000 270.00000000
-132.40335250   2.15261102   0.00000000   0.00000000 270.00000000
-132.30335250   2.15263657   0.00000000   0.00000000 270.00000000
-132.20335250   2.15266225   0.00000000   0.00000000 270.00000000
-132.10335250   2.15268806   0.00000000   0.00000000 270.00000000
-132.00335250   2.15271399   0.00000000   0.00000000 270.00000000
-131.90335250   2.15274005   0.00000000   0.00000000 270.00000000
-131.80335250   2.15276624   0.00000000   0.00000000 270.00000000
-131.70335250   2.15279256   0.00000000   0.00000000 270.00000000
-131.60335250   2.15281901   0.00000000   0.00000000 270.00000000
-131.50335250   2.15284558   0.00000000   0.00000000 270.00000000
-131.40335250   2.15287229   0.00000000   0.00000000 270.00000000
-131.30335250   2.15289912   0.00000000   0.00000000 270.00000000
-131.20335250   2.15292609   0.00000000   0.00000000 270.00000000
-131.10335250   2.15295319   0.00000000   0.00000000 270.00000000
-131.00335250   2.15298042   0.00000000   0.00000000 270.00000000
-130.90335250   2.15300779   0.00000000   0.00000000 270.00000000
-130.80335250   2.15303528   0.00000000   0.00000000 270.00000000
-130.70335250   2.15306292   0.00000000   0.00000000 270.00000000
-130.60335250   2.15309068   0.00000000   0.00000000 270.00000000
-130.50335250   2.15311858   0.00000000   0.00000000 270.00000000
-130.40335250   2.15314662   0.00000000   0.00000000 270.00000000
-130.30335250   2.15317479   0.00000000   0.00000000 270.00000000
-130.20335250   2.15320310   0.00000000   0.00000000 270.00000000
-130.10335250   2.15323155   0.00000000   0.00000000 270.00000000
-130.00335250   2.15326013   0.00000000   0.00000000 270.00000000
-129.90335250   2.15328885   0.00000000   0.00000000 270.00000000
-129.80335250   2.15331771   0.00000000   0.00000000 270.00000000
-129.70335250   2.15334671   0.00000000   0.00000000 270.00000000
-129.60335250   2.15337585   0.00000000   0.00000000 270.00000000
-129.50335250   2.15340513   0.00000000   0.00000000 270.00000000
-129.40335250   2.15343456   0.00000000   0.00000000 270.00000000
-129.30335250   2.15346412   0.00000000   0.00000000 270.00000000
-129.20335250   2.15349383   0.00000000   0.00000000 270.00000000
-129.10335250   2.15352367   0.00000000   0.00000000 270.00000000
-129.00335250   2.15355367   0.00000000   0.00000000 270.00000000
-128.90335250   2.15358380   0.00000000   0.00000000 270.00000000
-128.80335250   2.15361408   0.00000000   0.00000000 270.00000000
-128.70335250   2.15364451   0.00000000   0.00000000 270.00000000
-128.60335250   2.15367508   0.00000000   0.00000000 270.00000000
-128.50335250   2.15370580   0.00000000   0.00000000 270.00000000
-128.40335250   2.15373666   0.00000000   0.00000000 270.00000000
-128.30335250   2.15376767   0.00000000   0.00000000 270.00000000
-128.20335250   2.15379884   0.00000000   0.00000000 270.00000000
-128.10335250   2.15383014   0.00000000   0.00000000 270.00000000
-128.00335250   2.15386160   0.00000000   0.00000000 270.00000000
-127.90335250   2.15389321   0.00000000   0.00000000 270.00000000
-127.80335250   2.15392497   0.00000000   0.00000000 270.00000000
-127.70335250   2.15395688   0.00000000   0.00000000 270.00000000
-127.60335250   2.15398894   0.00000000   0.00000000 270.00000000
-127.50335250   2.15402115   0.00000000   0.00000000 270.00000000
-127.40335250   2.15405352   0.00000000   0.00000000 270.00000000
-127.30335250   2.15408604   0.00000000   0.00000000 270.00000000
-127.20335250   2.15411871   0.00000000   0.00000000 270.00000000
-127.10335250   2.15415154   0.00000000   0.00000000 270.00000000
-127.00335250   2.15418452   0.00000000   0.00000000 270.00000000
-126.90335250   2.15421766   0.00000000   0.00000000 270.00000000
-126.80335250   2.15425096   0.00000000   0.00000000 270.00000000
-126.70335250   2.15428441   0.00000000   0.00000000 270.00000000
-126.60335250   2.15431802   0.00000000   0.00000000 270.00000000
-126.50335250   2.15435179   0.00000000   0.00000000 270.00000000
-126.40335250   2.15438572   0.00000000   0.00000000 270.00000000
-126.30335250   2.15441981   0.00000000   0.00000000 270.00000000
-126.20335250   2.15445406   0.00000000   0.00000000 270.00000000
-126.10335250   2.15448846   0.00000000   0.00000000 270.00000000
-126.00335250   2.15452303   0.00000000   0.00000000 270.00000000
-125.90335250   2.15455777   0.00000000   0.00000000 270.00000000
-125.80335250   2.15459266   0.00000000   0.00000000 270.00000000
-125.70335250   2.15462772   0.00000000   0.00000000 270.00000000
