#      z (A) rho (1e-6/A2) irho (1e-6/A2) rhoM (1e-6/A2) theta (degrees)
-147.47214617   2.07227291   0.00000000   0.00000000 270.00000000
-147.37214617   2.07226134   0.00000000   0.00000000 270.00000000
-147.27214617   2.07224970   0.00000000   0.00000000 270.00000000
-147.17214617   2.07223798   0.00000000   0.00000000 270.00000000
-147.07214617   2.07222620   0.00000000   0.00000000 270.00000000
-146.97214617   2.07221434   0.00000000   0.00000000 270.00000000
-146.87214617   2.07220242   0.00000000   0.00000000 270.00000000
-146.77214617   2.07219042   0.00000000   0.00000000 270.00000000
-146.67214617   2.07217834   0.00000000   0.00000000 270.00000000
-146.57214617   2.07216620   0.00000000   0.00000000 270.00000000
-146.47214617   2.07215397   0.00000000   0.00000000 270.00000000
-146.37214617   2.07214168   0.00000000   0.00000000 270.00000000
-146.27214617   2.07212931   0.00000000   0.00000000 270.00000000
-146.17214617   2.07211686   0.00000000   0.00000000 270.00000000
-146.07214617   2.07210434   0.00000000   0.00000000 270.00000000
-145.97214617   2.07209175   0.00000000   0.00000000 270.00000000
-145.87214617   2.07207907   0.00000000   0.00000000 270.00000000
-145.77214617   2.07206632   0.00000000   0.00000000 270.00000000
-145.67214617   2.07205350   0.00000000   0.00000000 270.00000000
-145.57214617   2.07204059   0.00000000   0.00000000 270.00000000
-145.47214617   2.07202761   0.00000000   0.00000000 270.00000000
-145.37214617   2.07201455   0.00000000   0.00000000 270.00000000
-145.27214617   2.07200141   0.00000000   0.00000000 270.00000000
-145.17214617   2.07198819   0.00000000   0.00000000 270.00000000
-145.07214617   2.07197489   0.00000000   0.00000000 270.00000000
-144.97214617   2.07196151   0.00000000   0.00000000 270.00000000
-144.87214617   2.07194806   0.00000000   0.00000000 270.00000000
-144.77214617   2.07193452   0.00000000   0.00000000 270.00000000
-144.67214617   2.07192089   0.00000000   0.00000000 270.00000000
-144.57214617   2.07190719   0.00000000   0.00000000 270.00000000
-144.47214617   2.07189341   0.00000000   0.00000000 270.00000000
-144.37214617   2.07187954   0.00000000   0.00000000 270.00000000
-144.27214617   2.07186559   0.00000000   0.00000000 270.00000000
-144.17214617   2.07185155   0.00000000   0.00000000 270.00000000
-144.07214617   2.07183743   0.00000000   0.00000000 270.00000000
-143.97214617   2.07182323   0.00000000   0.00000000 270.00000000
-143.87214617   2.07180894   0.00000000   0.00000000 270.00000000
-143.77214617   2.07179457   0.00000000   0.00000000 270.00000000
-143.67214617   2.07178011   0.00000000   0.00000000 270.00000000
-143.57214617   2.07176556   0.00000000   0.00000000 270.00000000
-143.47214617   2.07175093   0.00000000   0.00000000 270.00000000
-143.37214617   2.07173621   0.00000000   0.00000000 270.00000000
-143.27214617   2.07172141   0.00000000   0.00000000 270.00000000
-143.17214617   2.07170651   0.00000000   0.00000000 270.00000000
-143.07214617   2.07169153   0.00000000   0.00000000 270.00000000
-142.97214617   2.07167646   0.00000000   0.00000000 270.00000000
-142.87214617   2.07166130   0.00000000   0.00000000 270.00000000
-142.77214617   2.07164604   0.00000000   0.00000000 270.00000000
-142.67214617   2.07163070   0.00000000   0.00000000 270.00000000
-142.57214617   2.07161527   0.00000000   0.00000000 270.00000000
-142.47214617   2.07159975   0.00000000   0.00000000 270.00000000
-142.37214617   2.07158413   0.00000000   0.00000000 270.00000000
-142.27214617   2.07156842   0.00000000   0.00000000 270.00000000
-142.17214617   2.07155262   0.00000000   0.00000000 270.00000000
-142.07214617   2.07153673   0.00000000   0.00000000 270.00000000
-141.97214617   2.07152074   0.00000000   0.00000000 270.00000000
-141.87214617   2.07150466   0.00000000   0.00000000 270.00000000
-141.77214617   2.07148848   0.00000000   0.00000000 270.00000000
-141.67214617   2.07147221   0.00000000   0.00000000 270.00000000
-141.57214617   2.07145584   0.00000000   0.00000000 270.00000000
-141.47214617   2.07143938   0.00000000   0.00000000 270.00000000
-141.37214617   2.07142282   0.00000000   0.00000000 270.00000000
-141.27214617   2.07140616   0.00000000   0.00000000 270.00000000
-141.17214617   2.07138940   0.00000000   0.00000000 270.00000000
-141.07214617   2.07137255   0.00000000   0.00000000 270.00000000
-140.97214617   2.07135560   0.00000000   0.00000000 270.00000000
-140.87214617   2.07133855   0.00000000   0.00000000 270.00000000
-140.77214617   2.07132139   0.00000000   0.00000000 270.00000000
-140.67214617   2.07130414   0.00000000   0.00000000 270.00000000
-140.57214617   2.07128679   0.00000000   0.00000000 270.00000000
-140.47214617   2.07126934   0.00000000   0.00000000 270.00000000
-140.37214617   2.07125178   0.00000000   0.00000000 270.00000000
-140.27214617   2.07123413   0.00000000   0.00000000 270.00000000
-140.17214617   2.07121637   0.00000000   0.00000000 270.00000000
-140.07214617   2.07119850   0.00000000   0.00000000 270.00000000
-139.97214617   2.07118053   0.00000000   0.00000000 270.00000000
-139.87214617   2.07116246   0.00000000   0.00000000 270.00000000
-139.77214617   2.07114429   0.00000000   0.00000000 270.00000000
-139.67214617   2.07112600   0.00000000   0.00000000 270.00000000
-139.57214617   2.07110762   0.00000000   0.00000000 270.00000000
-139.47214617   2.07108912   0.00000000   0.00000000 270.00000000
-139.37214617   2.07107052   0.00000000   0.00000000 270.00000000
-139.27214617   2.07105181   0.00000000   0.00000000 270.00000000
-139.17214617   2.07103299   0.00000000   0.00000000 270.00000000
-139.07214617   2.07101407   0.00000000   0.00000000 270.00000000
-138.97214617   2.07099503   0.00000000   0.00000000 270.00000000
-138.87214617   2.07097589   0.00000000   0.00000000 270.00000000
-138.77214617   2.07095663   0.00000000   0.00000000 270.00000000
-138.67214617   2.07093727   0.00000000   0.00000000 270.00000000
-138.57214617   2.07091779   0.00000000   0.00000000 270.00000000
-138.47214617   2.07089820   0.00000000   0.00000000 270.00000000
-138.37214617   2.07087850   0.00000000   0.00000000 270.00000000
-138.27214617   2.07085868   0.00000000   0.00000000 270.00000000
-138.17214617   2.07083875   0.00000000   0.00000000 270.00000000
-138.07214617   2.07081871   0.00000000   0.00000000 270.00000000
-137.97214617   2.07079855   0.00000000   0.00000000 270.00000000
-137.87214617   2.07077828   0.00000000   0.00000000 270.00000000
-137.77214617   2.07075789   0.00000000   0.00000000 270.00000000
-137.67214617   2.07073738   0.00000000   0.00000000 270.00000000
-137.57214617   2.07071676   0.00000000   0.00000000 270.00000000
-137.47214617   2.07069602   0.00000000   0.00000000 270.00000000
-137.37214617   2.07067516   0.00000000   0.00000000 270.00000000
-137.27214617   2.07065418   0.00000000   0.00000000 270.00000000
-137.17214617   2.07063308   0.00000000   0.00000000 270.00000000
-137.07214617   2.07061186   0.00000000   0.00000000 270.00000000
-136.97214617   2.07059052   0.00000000   0.00000000 270.00000000
-136.87214617   2.07056906   0.00000000   0.00000000 270.00000000
-136.77214617   2.07054748   0.00000000   0.00000000 270.00000000
-136.67214617   2.07052578   0.00000000   0.00000000 270.00000000
-136.57214617   2.07050395   0.00000000   0.00000000 270.00000000
-136.47214617   2.07048200   0.00000000   0.00000000 270.00000000
-136.37214617   2.07045992   0.00000000   0.00000000 270.00000000
-136.27214617   2.07043772   0.00000000   0.00000000 270.00000000
-136.17214617   2.07041540   0.00000000   0.00000000 270.00000000
-136.07214617   2.07039294   0.00000000   0.00000000 270.00000000
-135.97214617   2.07037037   0.00000000   0.00000000 270.00000000
-135.87214617   2.07034766   0.00000000   0.00000000 270.00000000
-135.77214617   2.07032482   0.00000000   0.00000000 270.00000000
-135.67214617   2.07030186   0.00000000   0.00000000 270.00000000
-135.57214617   2.07027877   0.00000000   0.00000000 270.00000000
-135.47214617   2.07025555   0.00000000   0.00000000 270.00000000
-135.37214617   2.07023219   0.00000000   0.00000000 270.00000000
-135.27214617   2.07020871   0.00000000   0.00000000 270.00000000
-135.17214617   2.07018509   0.00000000   0.00000000 270.00000000
-135.07214617   2.07016135   0.00000000   0.00000000 270.00000000
-134.97214617   2.07013746   0.00000000   0.00000000 270.00000000
-134.87214617   2.07011345   0.00000000   0.00000000 270.00000000
-134.77214617   2.07008930   0.00000000   0.00000000 270.00000000
-134.67214617   2.07006501   0.00000000   0.00000000 270.00000000
-134.57214617   2.07004059   0.00000000   0.00000000 270.00000000
-134.47214617   2.07001604   0.00000000   0.00000000 270.00000000
-134.37214617   2.06999134   0.00000000   0.00000000 270.00000000
-134.27214617   2.06996651   0.00000000   0.00000000 270.00000000
-134.17214617   2.06994154   0.00000000   0.00000000 270.00000000
-134.07214617   2.06991643   0.00000000   0.00000000 270.00000000
-133.97214617   2.06989118   0.00000000   0.00000000 270.00000000
-133.87214617   2.06986580   0.00000000   0.00000000 270.00000000
-133.77214617   2.06984027   0.00000000   0.00000000 270.00000000
-133.67214617   2.06981459   0.00000000   0.00000000 270.00000000
-133.57214617   2.06978878   0.00000000   0.00000000 270.00000000
-133.47214617   2.06976282   0.00000000   0.00000000 270.00000000
-133.37214617   2.06973672   0.00000000   0.00000000 270.00000000
-133.27214617   2.06971048   0.00000000   0.00000000 270.00000000
-133.17214617   2.06968408   0.00000000   0.00000000 270.00000000
-133.07214617   2.06965755   0.00000000   0.00000000 270.00000000
-132.97214617   2.06963087   0.00000000   0.00000000 270.00000000
-132.87214617   2.06960403   0.00000000   0.00000000 270.00000000
-132.77214617   2.06957706   0.00000000   0.00000000 270.00000000
-132.67214617   2.06954993   0.00000000   0.00000000 270.00000000
-132.57214617   2.06952265   0.00000000   0.00000000 270.00000000
-132.47214617   2.06949523   0.00000000   0.00000000 270.00000000
-132.37214617   2.06946765   0.00000000   0.00000000 270.00000000
-132.27214617   2.06943992   0.00000000   0.00000000 270.00000000
-132.17214617   2.06941204   0.00000000   0.00000000 270.00000000
-132.07214617   2.06938401   0.00000000   0.00000000 270.00000000
-131.97214617   2.06935582   0.00000000   0.00000000 270.00000000
-131.87214617   2.06932748   0.00000000   0.00000000 270.00000000
-131.77214617   2.06929898   0.00000000   0.00000000 270.00000000
-131.67214617   2.06927033   0.00000000   0.00000000 270.00000000
-131.57214617   2.06924152   0.00000000   0.00000000 270.00000000
-131.47214617   2.06921255   0.00000000   0.00000000 270.00000000
-131.37214617   2.06918343   0.00000000   0.00000000 270.00000000
-131.27214617   2.06915415   0.00000000   0.00000000 270.00000000
-131.17214617   2.06912470   0.00000000   0.00000000 270.00000000
-131.07214617   2.06909510   0.00000000   0.00000000 270.00000000
-130.97214617   2.06906534   0.00000000   0.00000000 270.00000000
-130.87214617   2.06903541   0.00000000   0.00000000 270.00000000
-130.77214617   2.06900532   0.00000000   0.00000000 270.00000000
-130.67214617   2.06897507   0.00000000   0.00000000 270.00000000
-130.57214617   2.06894466   0.00000000   0.00000000 270.00000000
-130.47214617   2.06891408   0.00000000   0.00000000 270.00000000
-130.37214617   2.06888333   0.00000000   0.00000000 270.00000000
-130.27214617   2.06885242   0.00000000   0.00000000 270.00000000
-130.17214617   2.06882134   0.00000000   0.00000000 270.00000000
-130.07214617   2.06879009   0.00000000   0.00000000 270.00000000
-129.97214617   2.06875867   0.00000000   0.00000000 270.00000000
-129.87214617   2.06872709   0.00000000   0.00000000 270.00000000
-129.77214617   2.06869533   0.00000000   0.00000000 270.00000000
-129.67214617   2.06866341   0.00000000   0.00000000 270.00000000
-129.57214617   2.06863131   0.00000000   0.00000000 270.00000000
-129.47214617   2.06859904   0.00000000   0.00000000 270.00000000
-129.37214617   2.06856659   0.00000000   0.00000000 270.00000000
-129.27214617   2.06853398   0.00000000   0.00000000 270.00000000
-129.17214617   2.06850118   0.00000000   0.00000000 270.00000000
-129.07214617   2.06846821   0.00000000   0.00000000 270.00000000
-128.97214617   2.06843507   0.00000000   0.00000000 270.00000000
-128.87214617   2.06840174   0.00000000   0.00000000 270.00000000
-128.77214617   2.06836824   0.00000000   0.00000000 270.00000000
-128.67214617   2.06833456   0.00000000   0.00000000 270.00000000
-128.57214617   2.06830070   0.00000000   0.00000000 270.00000000
-128.47214617   2.06826666   0.00000000   0.00000000 270.00000000
-128.37214617   2.06823244   0.00000000   0.00000000 270.00000000
-128.27214617   2.06819804   0.00000000   0.00000000 270.00000000
-128.17214617   2.06816345   0.00000000   0.00000000 270.00000000
-128.07214617   2.06812868   0.00000000   0.00000000 270.00000000
-127.97214617   2.06809372   0.00000000   0.00000000 270.00000000
-127.87214617   2.06805858   0.00000000   0.00000000 270.00000000
-127.77214617   2.06802325   0.00000000   0.00000000 270.00000000
-127.67214617   2.06798773   0.00000000   0.00000000 270.00000000
-127.57214617   2.06795203   0.00000000   0.00000000 270.00000000
-127.47214617   2.06791614   0.00000000   0.00000000 270.00000000
-127.37214617   2.06788006   0.00000000   0.00000000 270.00000000
-127.27214617   2.06784378   0.00000000   0.00000000 270.00000000
-127.17214617   2.06780732   0.00000000   0.00000000 270.00000000
-127.07214617   2.06777066   0.00000000   0.00000000 270.00000000
-126.97214617   2.06773381   0.00000000   0.00000000 270.00000000
-126.87214617   2.06769676   0.00000000   0.00000000 270.00000000
-126.77214617   2.06765952   0.00000000   0.00000000 270.00000000
-126.67214617   2.06762209   0.00000000   0.00000000 270.00000000
-126.57214617   2.06758446   0.00000000   0.00000000 270.00000000
-126.47214617   2.06754663   0.00000000   0.00000000 270.00000000
-126.37214617   2.06750860   0.00000000   0.00000000 270.00000000
-126.27214617   2.06747037   0.00000000   0.00000000 270.00000000
-126.17214617   2.06743194   0.00000000   0.00000000 270.00000000
-126.07214617   2.06739331   0.00000000   0.00000000 270.00000000
-125.97214617   2.06735448   0.00000000   0.00000000 270.00000000
-125.87214617   2.06731545   0.00000000   0.00000000 270.00000000
-125.77214617   2.06727621   0.00000000   0.00000000 270.00000000
-125.67214617   2.06723677   0.00000000   0.00000000 270.00000000
-125.57214617   2.06719712   0.00000000   0.00000000 270.00000000
-125.47214617   2.06715726   0.00000000   0.00000000 270.00000000
-125.37214617   2.06711720   0.00000000   0.00000000 270.00000000
-125.27214617   2.06707693   0.00000000   0.00000000 270.00000000
-125.17214617   2.06703645   0.00000000   0.00000000 270.00000000
-125.07214617   2.06699576   0.00000000   0.00000000 270.00000000
-124.97214617   2.06695485   0.00000000   0.00000000 270.00000000
-124.87214617   2.06691374   0.00000000   0.00000000 270.00000000
-124.77214617   2.06687241   0.00000000   0.00000000 270.00000000
-124.67214617   2.06683087   0.00000000   0.00000000 270.00000000
-124.57214617   2.06678912   0.00000000   0.00000000 270.00000000
-124.47214617   2.06674715   0.00000000   0.00000000 270.00000000
-124.37214617   2.06670496   0.00000000   0.00000000 270.00000000
-124.27214617   2.06666255   0.00000000   0.00000000 270.00000000
-124.17214617   2.06661993   0.00000000   0.00000000 270.00000000
-124.07214617   2.06657708   0.00000000   0.00000000 270.00000000
-123.97214617   2.06653402   0.00000000   0.00000000 270.00000000
-123.87214617   2.06649073   0.00000000   0.00000000 270.00000000
-123.77214617   2.06644722   0.00000000   0.00000000 270.00000000
-123.67214617   2.06640349   0.00000000   0.00000000 270.00000000
-123.57214617   2.06635953   0.00000000   0.00000000 270.00000000
-123.47214617   2.06631535   0.00000000   0.00000000 270.00000000
-123.37214617   2.06627094   0.00000000   0.00000000 270.00000000
-123.27214617   2.06622631   0.00000000   0.00000000 270.00000000
-123.17214617   2.06618144   0.00000000   0.00000000 270.00000000
-123.07214617   2.06613635   0.00000000   0.00000000 270.00000000
-122.97214617   2.06609103   0.00000000   0.00000000 270.00000000
-122.87214617   2.06604547   0.00000000   0.00000000 270.00000000
-122.77214617   2.06599969   0.00000000   0.00000000 270.00000000
-122.67214617   2.06595367   0.00000000   0.00000000 270.00000000
-122.57214617   2.06590741   0.00000000   0.00000000 270.00000000
-122.47214617   2.06586092   0.00000000   0.00000000 270.00000000
-122.37214617   2.06581420   0.00000000   0.00000000 270.00000000
-122.27214617   2.06576723   0.00000000   0.00000000 270.00000000
-122.17214617   2.06572003   0.00000000   0.00000000 270.00000000
-122.07214617   2.06567259   0.00000000   0.00000000 270.00000000
-121.97214617   2.06562491   0.00000000   0.00000000 270.00000000
-121.87214617   2.06557699   0.00000000   0.00000000 270.00000000
-121.77214617   2.06552882   0.00000000   0.00000000 270.00000000
-121.67214617   2.06548042   0.00000000   0.00000000 270.00000000
-121.57214617   2.06543177   0.00000000   0.00000000 270.00000000
-121.47214617   2.06538287   0.00000000   0.00000000 270.00000000
-121.37214617   2.06533372   0.00000000   0.00000000 270.00000000
-121.27214617   2.06528433   0.00000000   0.00000000 270.00000000
-121.17214617   2.06523469   0.00000000   0.00000000 270.00000000
-121.07214617   2.06518480   0.00000000   0.00000000 270.00000000
-120.97214617   2.06513466   0.00000000   0.00000000 270.00000000
-120.87214617   2.06508427   0.00000000   0.00000000 270.00000000
-120.77214617   2.06503363   0.00000000   0.00000000 270.00000000
-120.67214617   2.06498273   0.00000000   0.00000000 270.00000000
-120.57214617   2.06493158   0.00000000   0.00000000 270.00000000
-120.47214617   2.06488017   0.00000000   0.00000000 270.00000000
-120.37214617   2.06482850   0.00000000   0.00000000 270.00000000
-120.27214617   2.06477658   0.00000000   0.00000000 270.00000000
-120.17214617   2.06472440   0.00000000   0.00000000 270.00000000
-120.07214617   2.06467195   0.00000000   0.00000000 270.00000000
-119.97214617   2.06461925   0.00000000   0.00000000 270.00000000
-119.87214617   2.06456628   0.00000000   0.00000000 270.00000000
-119.77214617   2.06451305   0.00000000   0.00000000 270.00000000
-119.67214617   2.06445956   0.00000000   0.00000000 270.00000000
-119.57214617   2.06440580   0.00000000   0.00000000 270.00000000
-119.47214617   2.06435177   0.00000000   0.00000000 270.00000000
-119.37214617   2.06429748   0.00000000   0.00000000 270.00000000
-119.27214617   2.06424292   0.00000000   0.00000000 270.00000000
-119.17214617   2.06418808   0.00000000   0.00000000 270.00000000
-119.07214617   2.06413298   0.00000000   0.00000000 270.00000000
-118.97214617   2.06407760   0.00000000   0.00000000 270.00000000
-118.87214617   2.06402195   0.00000000   0.00000000 270.00000000
-118.77214617   2.06396603   0.00000000   0.00000000 270.00000000
-118.67214617   2.06390983   0.00000000   0.00000000 270.00000000
-118.57214617   2.06385335   0.00000000   0.00000000 270.00000000
-118.47214617   2.06379660   0.00000000   0.00000000 270.00000000
-118.37214617   2.06373957   0.00000000   0.00000000 270.00000000
-118.27214617   2.06368225   0.00000000   0.00000000 270.00000000
-118.17214617   2.06362466   0.00000000   0.00000000 270.00000000
-118.07214617   2.06356678   0.00000000   0.00000000 270.00000000
-117.97214617   2.06350862   0.00000000   0.00000000 270.00000000
-117.87214617   2.06345018   0.00000000   0.00000000 270.00000000
-117.77214617   2.06339145   0.00000000   0.00000000 270.00000000
-117.67214617   2.06333243   0.00000000   0.00000000 270.00000000
-117.57214617   2.06327312   0.00000000   0.00000000 270.00000000
-117.47214617   2.06321353   0.00000000   0.00000000 270.00000000
