# intensity: 1.00708572974611
# background: 3.58641010880629e-07
#           Q (1/A)             dQ (1/A)                    R                   dR               theory              fresnel
      0.010084459364     0.00010301271332        0.99060473148       0.010563542732     1.00531139155131    0.889387089350988
      0.010527572831     0.00010516249785        0.97661193666       0.010441279393    0.997628470994705     0.41769745160898
      0.010957382779      0.0001072922675        0.98807846201       0.010539424411    0.989260946950033    0.228332377802609
      0.011400472385     0.00010953100917        0.96423061548       0.010304250072    0.979567831565861    0.151670270786094
      0.011830312024     0.00011174221746        0.95560004233       0.010292935543     0.96788955605702     0.11036560513319
      0.012277757864     0.00011408277381        0.94663621366       0.010226899042    0.952279644019122   0.0831616486630754
      0.012716371148     0.00011641324928        0.91241736146      0.0099023999243    0.932322890356137   0.0650318063388572
      0.013159412929     0.00011880140158        0.90662362274      0.0099148818247    0.905943680319265   0.0519486622995123
      0.013593700546     0.00012117372412        0.87333413658      0.0096539643153    0.872207289892619   0.0424432094279713
      0.014041082168      0.0001236481371        0.82494481857      0.0092914956277    0.827217257622072   0.0349917944173149
      0.014470975218     0.00012605336378        0.77726404339      0.0088960595594    0.772249522974153   0.0294176641385627
        0.0149139815     0.00012855857508        0.70004077822      0.0083146786816     0.70226405124416   0.0248634491202176
      0.015348249037     0.00013103911185         0.6171389073      0.0076590667876    0.620890203373141   0.0212726430608434
      0.015791263766     0.00013359342958        0.51371586062      0.0067930791659    0.527940940769162   0.0182893102788707
      0.016221121047     0.00013609360472        0.43210146033      0.0060959127578    0.434322707358683     0.01590362876367
      0.016668542802      0.0001387174039        0.33747504569       0.005248827174    0.342083793481055   0.0138392635951843
      0.017107181564     0.00014130978984        0.25900984995      0.0044799239449    0.265452135999005   0.0121441127522696
      0.017550214409     0.00014394723651        0.20568003341      0.0039319426566    0.207564514681505   0.0106982676901226
      0.017984456025     0.00014654997154         0.1669950762       0.003509855619     0.17095299619457  0.00949211502777861
      0.018427478239     0.00014922236187        0.14938067717       0.003299486706     0.15139015754463  0.00843805339715861
       0.01885736761     0.00015183111866        0.14723470632      0.0032760406905    0.145058218939296  0.00755635451147496
      0.019304756228     0.00015456152523        0.14685990505      0.0032660539884    0.146760793610278  0.00676165213503636
      0.019734613428     0.00015719903462        0.15368559444      0.0033443112594    0.152378428356422   0.0060970211527545
      0.020177706922     0.00015993148633         0.1602731667      0.0034167878142    0.159336958345057  0.00549785730976265
       0.02061186743     0.00016262169732        0.17100579443      0.0035525634992    0.165406351557962  0.00498243442788689
      0.021059259083     0.00016540653623        0.17073016209      0.0035537884473    0.169748223177262  0.00451457812659366
      0.021489170283     0.00016809406952        0.17086757139      0.0035497180809    0.171527310228352  0.00411695847986215
      0.021940947339     0.00021434759213         0.1692637428      0.0026716588365    0.170328729206029  0.00375127780174137
      0.022809438424     0.00022268882966        0.16493713409      0.0025946367965     0.16098573428507  0.00315321566291108
      0.023677926785     0.00023152492749        0.15289596595      0.0024264399802    0.143691511296138  0.00266941503248456
      0.024563957741     0.00023977165934        0.10751506407       0.001771634727    0.120479787701718  0.00226938268356243
      0.025441211656     0.00024841709665       0.088303047982       0.001561088994   0.0951665990576073  0.00194559634405716
      0.026318465085     0.00025727095267       0.068349112281      0.0013286146911   0.0705692865233536  0.00167844647484329
      0.027195712694     0.00026526542577       0.049524514207      0.0011004025389   0.0491269023961018  0.00145626095066282
      0.028081730878     0.00027403269465       0.034293302921     0.00089206670517    0.032205839633081  0.00126843094693664
      0.028958971718     0.00028296429757       0.018804220474     0.00058659298013    0.020614201874956  0.00111172494069103
      0.029836209028     0.00029111479763       0.013705831285     0.00049383275271   0.0137249451684951 0.000978778614291364
      0.030713445318     0.00030012434974       0.010048379471     0.00041549791918    0.010506107668015 0.000865350577376188
      0.031590675251     0.00030874335659       0.010111023927     0.00041146399441  0.00968988320606503 0.000768058117164805
      0.032467901335     0.00031689352918       0.010969321906     0.00042429264199   0.0100779194991078 0.000684183301047795
       0.03332758136     0.00032568473559      0.0098383634437     0.00036540716198   0.0107132150193267 0.000612927734069213
      0.034204799507     0.00033404300924       0.010851910149     0.00038047154869   0.0110131037041729 0.000549632088819644
      0.035090787068     0.00034280985761       0.010917955803     0.00037558170666   0.0106581605087431 0.000493841735864175
      0.035967996729     0.00035132425919      0.0098426088646     0.00035303089459  0.00962095479499576  0.00044545651236469
      0.036836431128     0.00035961236078      0.0084111982931     0.00032236632455  0.00806699451323631 0.000403312314295953
      0.037722405411     0.00036840492659      0.0057966679994     0.00024818375104   0.0061917117085429  0.00036537178127943
      0.038599601604     0.00037697116591      0.0038792333272     0.00020073374987   0.0043189647459558 0.000332131984860969
      0.039485566449     0.00038539915318      0.0025842110391     0.00016161373813  0.00264729615095316 0.000302336028582476
      0.040353982388     0.00039431172731      0.0017345313562     0.00013042738943  0.00138066183310532 0.000276329516187629
      0.041239934792     0.00040263527116     0.00064574131373     8.0171699803e-05   0.0005357224480427 0.000252636725672588
      0.042108340889     0.00041131333225     0.00023416108467     4.6696911305e-05 0.000129730687632438 0.000231842721712628
      0.042985515111     0.00042006142086     0.00015610114762     3.8210426241e-05 6.49334700719566e-05 0.000212984559224969
      0.043866209055      0.0004280720557     0.00025480721667     2.1302382721e-05 0.000230405012832573 0.000195950318422284
      0.044735457301     0.00043688417251     0.00051173089549      3.261978336e-05 0.000497371102544338 0.000180787278257514
      0.045612620416     0.00044544968185     0.00078277188085     3.9724786217e-05 0.000762756641023484 0.000166955295050379
      0.046489763366     0.00045380677604     0.00093441709267     4.0937920787e-05 0.000946737499737344 0.000154429327604119
      0.047366915585      0.0004626844313      0.0010145532947     4.2196659438e-05  0.00101028922578674 0.000143064625232929
       0.04824844089     0.00047132363435     0.00096160097525     4.0784638105e-05 0.000951250365190611 0.000132683343569968
       0.04912119229     0.00047960632295     0.00086465326153     3.8348221521e-05 0.000798931809566043 0.000123323981254127
      0.050011468368     0.00048852355243     0.00068963043601     3.4014001444e-05 0.000594148881773793 0.000114616523228954
      0.050879816289     0.00049678399101     0.00036017012694     2.3287691287e-05 0.000397181998896265 0.000106855924990009
      0.051761322925       0.000505422741     0.00024880926448     1.9343909614e-05 0.000245083606476512 9.96437003307493e-05
      0.052638450221     0.00051429985912     0.00019947610649     1.7251630699e-05 0.000172238807661318 9.30649947363897e-05
      0.053515512709     0.00052247371234     0.00022799455419     1.8200968138e-05 0.000189735205132714  8.7024545341504e-05
      0.054392614543      0.0005312981476     0.00034808421059     2.2157159558e-05 0.000290899996556265 8.14698135961786e-05
      0.055269714896     0.00053973220977     0.00052927154891     2.5849477114e-05 0.000453600307451272 7.63544325739807e-05
      0.056146810558      0.0005480620818     0.00068824838884     2.9249240014e-05 0.000646174217394467 7.16372146731563e-05
      0.057019490052     0.00055704650816     0.00089515830071      3.308099682e-05 0.000833107997042532  6.7302882123381e-05
      0.057896529632     0.00056527167281      0.0010591260595     3.5810883106e-05 0.000985267567728402 6.32747348117879e-05
      0.058773635908     0.00057404378496      0.0012324090159     3.8517399444e-05  0.00107883154125767 5.95457001929662e-05
      0.059650704635     0.00058280249683      0.0011456778657     3.5577749008e-05  0.00110223261522629 5.60897900919349e-05
      0.060527730232     0.00059098838396      0.0011764075893     3.5885425852e-05  0.00105585888458959 5.28831101351846e-05
      0.061395988252     0.00059971579702      0.0010522867485     3.3699316235e-05 0.000951681921177544 4.99333895822623e-05
      0.062277413246     0.00060817074088     0.00092151015127     3.1355730135e-05 0.000805016327232403 4.71483043586217e-05
      0.063154441007     0.00061649948696     0.00072590486596     2.7639608255e-05 0.000640290100247123 4.45689064201517e-05
      0.064035837499     0.00062547460148     0.00051347313404     2.2215963887e-05  0.00047790896515012 4.21537098356755e-05
      0.064904074592     0.00063391515377      0.0003680230663     1.8721246415e-05 0.000339146889627991 3.99341079662226e-05
      0.065785465608     0.00064249966754     0.00026310394387      1.577293957e-05 0.000232204942471704 3.78300478744046e-05
      0.066666839476     0.00065113598309     0.00020685113679     1.3954871944e-05 0.000164796981228564 3.58642056027995e-05
      0.067543824032     0.00065933380044     0.00015530768455     1.2103251412e-05 0.000135517327624414 3.40346902159548e-05
      0.068420800357     0.00066805191461     0.00017131597787     1.2209214409e-05 0.000136957339209095 3.23218596411032e-05
      0.069297773573     0.00067697826677     0.00017203442999     1.2184781878e-05 0.000158536399621439 3.07168103938516e-05
      0.070176918396     0.00068524504903     0.00022387809706     9.7761542625e-06 0.000188511243168705 2.92077702515475e-05
      0.071047306796      0.0006939492943      0.0002544271925     1.4553728034e-05 0.000215622422026859 2.78052213988563e-05
      0.071924246884     0.00070217226995     0.00027433460766     1.5045278639e-05 0.000232064174049635 2.64774703459594e-05
      0.072801166802     0.00071088955868      0.0002729852195     1.4499541991e-05 0.000232815663056253  2.5229330176713e-05
      0.073682480629     0.00071968075089     0.00025785787722     1.3842257576e-05 0.000216854509597433 2.40491932381972e-05
      0.074555022652     0.00072793339475       0.000240579486     1.3446967183e-05 0.000186983650689647 2.29490643186348e-05
      0.075431933784     0.00073649408099     0.00016637946129     1.1184237397e-05 0.000147764008302428 2.19071905191238e-05
      0.076313209758     0.00074559714996     9.5300275892e-05     8.5189387573e-06 0.000105256505658514 2.09200702714671e-05
        0.0771944892     0.00075363283361      6.867740908e-05     7.0072603399e-06 6.58031183987498e-05 1.99888385064679e-05
      0.078071374206     0.00076245321781     3.6632016619e-05     5.2821378659e-06  3.4550929431862e-05 1.91141091177098e-05
       0.07894384588     0.00077106919245     2.3021967803e-05      4.343532116e-06 1.44124212288731e-05 1.82917008454836e-05
      0.079820710718     0.00077921262551     1.3468133092e-05     3.5184201106e-06 6.03791080665269e-06 1.75101362446378e-05
      0.080697560604     0.00078808443737     2.2245499774e-05     4.1865563184e-06 8.36439904119157e-06 1.67707926899567e-05
      0.081574400657     0.00079656569431     2.4208369277e-05     4.1302985426e-06 1.85772828640695e-05 1.60709126093414e-05
      0.082451230771     0.00080512491044     5.7235652434e-05     5.9878376595e-06  3.2974009161873e-05 1.54080110872688e-05
      0.083328050838     0.00081384006398     5.9788481589e-05     6.0819531944e-06 4.77136711572514e-05 1.47797679510237e-05
      0.084204860752     0.00082211262019     7.2997741246e-05     6.6546305754e-06 5.95303791738786e-05 1.41840099398011e-05
      0.085081665632     0.00083087938932     8.8135155096e-05     7.2383178454e-06 6.62446936220065e-05 1.36187637389026e-05
      0.085962849115     0.00083961600471     7.9706106921e-05      6.692427931e-06 6.70342484560627e-05 1.30795293705735e-05
      0.086835233731     0.00084796999644     6.5938970325e-05     6.1083868837e-06 6.24654143623828e-05 1.25724359326295e-05
      0.087707600961     0.00085671411608     6.6912274878e-05     6.1183561122e-06  5.4187648883484e-05 1.20904281636388e-05
      0.088584357408     0.00086498563599       5.82564353e-05     5.6998776564e-06 4.44444633647252e-05  1.1629742678386e-05
      0.089465517328     0.00087356536711     4.3920977921e-05       4.95861459e-06 3.57369678908529e-05 1.11893322403713e-05
      0.090346631345     0.00088227476591     3.2107728506e-05     4.1321866589e-06 3.03450833689078e-05 1.07702667180962e-05
      0.091218940428     0.00089040625657     4.2824634317e-05     4.6790617978e-06 2.97675228735069e-05 1.03751769218813e-05
       0.09209567241     0.00089931476719     3.1711823817e-05     4.0532474086e-06 3.45354939872176e-05 9.99683266897179e-06
      0.092972396898     0.00090800175337     5.1277720685e-05     5.0481406366e-06 4.42427576743409e-05 9.63620279460647e-06
      0.093849058561     0.00091621986952      6.822820106e-05     5.7696284361e-06 5.76116545951426e-05 9.29231655922018e-06
      0.094725777149     0.00092514061593     7.6016815825e-05     5.8925209099e-06 7.27690240299841e-05  8.9642283209754e-06
      0.095602404582     0.00093367040114     9.4681391096e-05     6.5362033678e-06 8.75730486431817e-05 8.65110748923254e-06
      0.096479093013     0.00094191421309     0.00010273653453     6.7870304795e-06  9.9992841544877e-05 8.35208925479545e-06
      0.097355717108     0.00095083400682     9.6630388757e-05     6.5469493489e-06 0.000108397100703403 8.06649711165352e-06
      0.098236738141     0.00095915115015     0.00011467310537      7.092056533e-06 0.000111839582355849 7.79218952586768e-06
      0.099108987995     0.00096758036921     0.00010228948945     6.5341357087e-06 0.000110070212896645 7.53254456070301e-06
      0.099985596882     0.00097621335137      0.0001068847254     6.6603304514e-06 0.000103598702827841 7.28293886148544e-06
       0.10086219359     0.00098463800973     9.0812081726e-05     6.1141821749e-06 9.35121110910845e-05  7.0441069630502e-06
       0.10173439628     0.00099337860324     8.1197717047e-05     5.7703577502e-06 8.13360667682059e-05 6.81662018552881e-06
       0.10261535002      0.0010020327787     7.1882384762e-05     5.4229221945e-06 6.84661889865314e-05 6.59659638576873e-06
       0.10348315299      0.0010102827638     5.2587759463e-05     4.5435544323e-06 5.66648390053834e-05 6.38894990385465e-06
       0.10436846689      0.0010193226877     4.1957588996e-05     4.0651454688e-06 4.66711051649417e-05 6.18595626469635e-06
       0.10524500108      0.0010275119373     3.6314975108e-05     3.8042514245e-06 3.94864560616411e-05 5.99331874854288e-06
       0.10612152244       0.001036299283     3.4990761788e-05     3.7175893598e-06 3.51771243768386e-05 5.80859146222449e-06
       0.10699803087      0.0010447742712     2.3933068182e-05     3.1048200193e-06 3.34455200994132e-05 5.63137871823413e-06
       0.10787452627      0.0010529628425     3.2292791476e-05     3.5372064965e-06 3.36390258162479e-05 5.46131717780837e-06
       0.10875100852      0.0010618014204     2.8121155687e-05     3.3027541566e-06 3.48972265797511e-05 5.29807005998898e-06
       0.10961871143      0.0010705438508     2.9163576217e-05     3.1984370331e-06 3.63021786069163e-05 5.14284462471163e-06
       0.11049516721      0.0010786796366     2.5854765273e-05     3.0244135614e-06 3.70958515359419e-05 4.99219646013841e-06
       0.11137597868      0.0010876174547     2.8445279344e-05     3.1475299675e-06 3.66866861817897e-05 4.84673683251829e-06
       0.11225241396      0.0010959608065     2.5789509905e-05     3.0016777236e-06 3.48023419542872e-05 4.70762027532349e-06
         0.113124448      0.0011044900833     2.1783675264e-05     2.7784729619e-06 3.14871241008568e-05 4.57451678837755e-06
       0.11400522721      0.0011132970159     1.9146190679e-05     2.6224934679e-06 2.69677351683652e-05 4.44521555783932e-06
       0.11488161785      0.0011217956454     1.2161666379e-05     2.1558287629e-06 2.17723723105209e-05 4.32144154101319e-06
       0.11575800773      0.0011301640627     1.4800696029e-05     2.3212021887e-06 1.64305486835241e-05 4.20231996408388e-06
       0.11663435743      0.0011386881622     7.6021423197e-06     1.7785451192e-06 1.14737508896088e-05 4.08765138346169e-06
       0.11751070221      0.0011470559409     2.9399182889e-06     1.3142018246e-06 7.32826303138807e-06 3.97723034089177e-06
       0.11838702796      0.0011560475719     3.7497061212e-06     1.4057375658e-06 4.26018193975607e-06 3.87087519836834e-06
       0.11926335713      0.0011642848857     1.7134351399e-06     1.1096978514e-06 2.34713793881737e-06 3.76839733890893e-06
       0.12014404353      0.0011729858762    -3.4259103256e-08     8.8696714753e-07 1.49612614838353e-06 3.66915379064096e-06
       0.12102033055      0.0011818335353     7.1896472254e-07     1.0215017443e-06 1.48935530368361e-06 3.57397396771418e-06
       0.12190097462      0.0011900528909     3.3360923461e-06     1.3481561307e-06 2.01975318070514e-06 3.48173379326617e-06
       0.12277286025      0.0011987091156      2.695664827e-06     1.3106664021e-06 2.77037360239188e-06 3.39365141773351e-06
       0.12364910271      0.0012074651326     3.1187254826e-06     1.3305308508e-06 3.49116889529779e-06 3.30823818176253e-06
        0.1245253301      0.0012154406501     5.7168960522e-06     1.5590662391e-06 4.01077330890729e-06  3.2258086316429e-06
       0.12540154233      0.0012244299843     2.4316228924e-06     1.2370279333e-06 4.27235243990882e-06 3.14624608332263e-06
       0.12627774972      0.0012330289389     2.3260442178e-06     1.2191838033e-06 4.32962199189406e-06 3.06942488560883e-06
       0.12715393127      0.0012411597522     5.3941584519e-06     1.5144930618e-06 4.32103897134021e-06 2.99523361981599e-06
       0.12803009734      0.0012499400347     4.1697546951e-06       1.33499273e-06 4.43268155746873e-06 2.92356869837185e-06
        0.1289062478      0.0012584081434     6.4811185529e-06     1.5374388469e-06 4.85292589092633e-06 2.85432358185798e-06
       0.12978238256      0.0012670578817     6.3554820116e-06     1.5390224581e-06 5.73070438780807e-06 2.78740287838596e-06
        0.1306585015      0.0012757334285     9.3026584575e-06     1.7642049112e-06 7.14220098632277e-06 2.72271275277638e-06
       0.13153020086      0.0012839966122     9.8516214807e-06     1.8130310876e-06  9.0624987970681e-06 2.66047278892643e-06
       0.13240630373      0.0012927494736      1.377023955e-05     2.0380219867e-06 1.14083230797391e-05 2.59997126350053e-06
       0.13328677072      0.0013011341356      1.415720526e-05     2.0423164012e-06 1.40058947752836e-05 2.54115815005819e-06
       0.13416719928      0.0013095963118     1.7250266337e-05     2.2000325559e-06 1.66175996814774e-05 2.48426453158114e-06
       0.13503885527      0.0013184302045     2.1510943897e-05     2.4037523493e-06 1.89838728401805e-05 2.42975464241992e-06
