# intensity: 0.94824879985945
# background: 0
#           Q (1/A)             dQ (1/A)                    R                   dR               theory              fresnel
  0.0100976750254631 0.000767726577115525     0.93124911323173  0.00862415072380786    0.945282079547548    0.477500441950802
  0.0105422083288431 0.000769086983432338    0.947038219250378  0.00874612473448181    0.944133862477444    0.393009892923771
  0.0109720593318343 0.000770413566568081    0.942354168621822  0.00870015096257847    0.942484221335965     0.30636471103426
  0.0114165619015694 0.000771796713499904    0.946147815501342  0.00872741042374874    0.940018667310629    0.222541926289804
  0.0118434829637408 0.000773135981391554     0.94113785878033  0.00869056615801293    0.936726945399964    0.157775102000283
  0.0122879669070244 0.000774541581923414    0.950002422670989  0.00876709131881987    0.932097728279801    0.110667657661321
  0.0127207692712545 0.000775921182276444    0.948261858536957  0.00873480166214589    0.926059572752921   0.0812229655752505
  0.0131652429699898 0.000777349171626022    0.922049570416205  0.00854949561999018    0.917716495839876   0.0617980379020083
  0.0136009994894266 0.000778760074039274    0.914354083329627  0.00849324673824857    0.906601527957289   0.0489162267802868
   0.014045431278646 0.000780210151425125    0.903133516284981  0.00840696366798832    0.891075619924694   0.0395395194497835
  0.0144841149449348 0.000781652395896878    0.874346399966104   0.0082245978922931    0.869966344706862   0.0326302610677925
  0.0149285960942507 0.000783124710009549    0.838453592857205  0.00794407795677243    0.840518468703796   0.0272439201548948
  0.0153584899380803 0.000784559195622343    0.812734662792899  0.00777372162116445    0.801737537208869   0.0231368984737657
  0.0158058758825064 0.000786062913459781     0.74130477484216  0.00722426888008932    0.747693450270792   0.0197113237415867
  0.0162357520312071 0.000787518159649559     0.67045621613384  0.00671327826880056    0.680253374590241   0.0170358149841474
  0.0166802443563938 0.000789033583940096    0.591525446996473  0.00612721112464954    0.593766495617157   0.0147583364480639
  0.0171130411326885 0.000790519438225311    0.475386311041537  0.00523255764363016    0.495417869362395   0.0129149702997612
   0.017560450360179 0.000792066139023041    0.372946012202883  0.00443816910617917    0.385571650931503   0.0113173684513395
  0.0179932322353125 0.000793572547056392    0.267906748090492  0.00358082214890883    0.281117925849489    0.010011266811572
  0.0184377077966929 0.000795004076016271    0.171668765252974  0.00270715959558421    0.187046188948771  0.00886872928711236
  0.0188646260648966 0.000795493705346184     0.11058454572889  0.00211337857362894    0.117935653019498  0.00792650098753383
  0.0193120259791613 0.000796018550097044   0.0720097300352674  0.00167285249287101   0.0724378643682143  0.00707464546941534
  0.0197477731853724 0.000796541182552102    0.061388383689342  0.00153405059584355   0.0534600032286285  0.00635649210496688
  0.0201951861381531 0.000797089587508476   0.0618670039554854  0.00153913410418245   0.0544121668975546  0.00571449486413213
  0.0206309147179127 0.000797635071785854   0.0710467625468238  0.00164739127783172   0.0679741407550817  0.00516828890546049
  0.0210695490241051  0.00079819559044195   0.0881360856284563  0.00185667107189336   0.0874144848046303  0.00468509051386791
  0.0214994288980961 0.000798755988124975    0.105712900714044  0.00207021457418792    0.107109579631936  0.00426765557074903
  0.0219438672065735 0.000837344949109598    0.114271598341552  0.00119455010819887    0.124226014479823  0.00389269353392198
   0.022826986387372 0.000843004004994634    0.133882521254535  0.00130159723754277    0.146200650327991  0.00325429939382376
  0.0236926041543484 0.000848600016233237    0.142154104482979  0.00134188022251288    0.149983319576973  0.00275186320956071
  0.0245756395161152 0.000854262342265866    0.135284269773611  0.00128523629718637    0.138786327601709  0.00233650806982602
  0.0254470705986023 0.000860207398636257    0.118046843737756  0.00116276930699132    0.117650367938386  0.00200197653415063
  0.0263243243098259 0.000865581329867387   0.0922130510145352 0.000983205476991476   0.0914135147612205  0.00172453243995564
  0.0272073857486248 0.000871392716905364    0.069141724126706 0.000817271621782076   0.0647459039893786  0.00149289968696634
  0.0280759036540985 0.000877530780721781   0.0446861819689107 0.000624230371706679   0.0419500313941125  0.00130237545176506
  0.0289560649544001 0.000882825930899598   0.0253876976220391 0.000451518179591262   0.0245931690301882  0.00113972508412678
  0.0298362318426371 0.000888680888161364   0.0136551252278589 0.000322009292374698   0.0137169731649481  0.00100202411323308
  0.0307105109095573 0.000894922150470372  0.00751250936378801 0.000234027142282274  0.00866062225266903 0.000885485149296341
  0.0315906777977943 0.000900506524463444  0.00719943567005599 0.000226433356378762  0.00781809906825076 0.000784968336278568
  0.0324679352343082 0.000906810912588314  0.00758370521811663 0.000205151662514663  0.00941404734161036 0.000698744208898862
  0.0333451293408871 0.000912875300981848   0.0107466877482524 0.000243584764137924   0.0118085227516019 0.000624161504481538
  0.0342194251716137 0.000918366361019928   0.0137013402991662 0.000273661219649434   0.0138067077918726 0.000559560940806945
  0.0350995548069477 0.000924638341615036   0.0158814080025576 0.000293586039348406   0.0147427504417888 0.000502835641970514
  0.0359680019319057  0.00093041748357318   0.0157730181201977  0.00028905394112798   0.0143956527271733 0.000453795495748067
   0.036848146468401 0.000936648699352542   0.0146090652247543 0.000276269208454799   0.0128889050404591 0.000410099878048667
  0.0377136319875717 0.000942869024980031  0.00979029471755316 0.000201360302714875   0.0106190542391891 0.000372204155223007
  0.0385996252298355 0.000948646270670054  0.00757553208024251 0.000174638043004409  0.00793408086475804 0.000337840644760918
  0.0394767932593822 0.000954786479866613  0.00540158150313791 0.000145457947915826   0.0053493199803324 0.000307676167555137
  0.0403481386601925 0.000960922810273778  0.00283433745361905  0.00010373226200909  0.00318830485073778 0.000280995977159034
  0.0412253364920616 0.000966960698531012  0.00128704629684119 6.93355014269003e-05  0.00162220475545381 0.000257014154862269
  0.0421054288744927 0.000973466678678367  0.00040544865594708 3.90646700294597e-05 0.000722457152236231 0.000235487285452647
  0.0429767481982708 0.000979491122160492 0.000256411905247594 3.12555708927451e-05 0.000426022716784641 0.000216362549630853
  0.0438642874360085 0.000985689860167108 0.000504528185814026 2.09669257414046e-05 0.000575201053480532 0.000198847833582075
  0.0447332412004471 0.000992108685507851  0.00103260361610264 3.42615759746028e-05 0.000970101795406217  0.00018339406296445
  0.0456104166805744  0.00099788831193221   0.0016307718067498 4.27651936811048e-05  0.00142964162536177 0.000169294371898781
  0.0464897826313972  0.00100437248191691  0.00223448935078351  4.9621352271978e-05  0.00179990246038219 0.000156501815040366
  0.0473691187798977  0.00101087475289923  0.00243660675347302 5.14398884092591e-05  0.00198467087244641 0.000144901152881042
  0.0482462495565414  0.00101692666579263  0.00237729900579418 5.04832849746871e-05  0.00195252863727221 0.000134385303928837
  0.0491189770400524  0.00102351994003868    0.001769724710851 4.08655526862124e-05  0.00172927477665955 0.000124857379173588
  0.0499983131885529  0.00102987502080414  0.00140454900114673 3.59829926883125e-05  0.00137540284603675 0.000116099735652407
  0.0508732311427593  0.00103608430083814 0.000986610567679581 2.97792191801564e-05 0.000978450232901763 0.000108138226131375
  0.0517459735274315   0.0010426847409845 0.000588773480997378 2.28880204347431e-05 0.000621320109173889 0.000100868225230947
  0.0526274517178535  0.00104854668215179 0.000288771996986586 1.60474842404083e-05  0.00036781406659796   9.413701379546e-05
  0.0535089559853077   0.0010551783705201 0.000159870926504618 1.20131039092111e-05 0.000262885882115271 8.79604028479467e-05
  0.0543794669210911  0.00106179492653379  0.00020266867272996 1.32813695579776e-05 0.000313083811509803 8.23519443206679e-05
   0.055258747190237  0.00106805760353114 0.000424026959550512 1.77925853716899e-05 0.000497034828794016 7.71350195808975e-05
  0.0561380349099636  0.00107472479553003 0.000732091805536619 2.32874376214759e-05 0.000770281715905113 7.23263884881879e-05
  0.0570129118859768  0.00108101890732673   0.0010931797481838  2.8411553650038e-05  0.00107409543636789 6.79091751145258e-05
  0.0578943639993668  0.00108736026978253  0.00135869284659102 3.15531692966417e-05  0.00135440290613045 6.37957094545954e-05
  0.0587779954075813  0.00109431064007421  0.00166414252508605  3.4881433407966e-05  0.00156007855331176 5.99811422076663e-05
  0.0596550591289997  0.00110063870484265  0.00175379568565181  3.5659950691851e-05   0.0016575245715453 5.64733124854676e-05
  0.0605233274400234  0.00110712767301974  0.00183396767123933 3.63519019572081e-05  0.00163732428048691 5.32505341253294e-05
     0.0614003688097  0.00111386901857443  0.00154713803562099 3.14277082230204e-05  0.00150688076196317 5.02261181917631e-05
   0.062277402728796  0.00111992490855585  0.00125724967858225 2.80355469096779e-05  0.00129016920103195 4.74138515575214e-05
   0.063158817589283  0.00112688216090892 0.000997726401314707  2.4721306288123e-05  0.00102064779950946 4.47838171105021e-05
  0.0640402138233185  0.00113351720201825 0.000751487265896993 2.12510654869015e-05 0.000738851169667773 4.23340487001398e-05
  0.0649194270372391  0.00113983437546305 0.000456864705209044 1.63491518830624e-05 0.000482105216068652 4.00553366718702e-05
  0.0657898336648941  0.00114689866701499 0.000291007173557588 1.29833220915659e-05 0.000279832172578548 3.79490133317066e-05
  0.0666624680161476  0.00115336090989538 0.000144507733083991 8.66666510380245e-06 0.000145082182263156 3.59747776056653e-05
  0.0675394311547279  0.00115982976905695 0.000101833999430655 7.27416313944906e-06 8.21507558196959e-05  3.4118724343895e-05
  0.0684208050370217  0.00116669286048273 0.000109339770129026 7.48277474341955e-06 8.42665039505102e-05 3.23727264586278e-05
  0.0692999586462975  0.00117315574330224 0.000197505751566912 9.95677536607525e-06 0.000134803338664135 3.07411429013087e-05
  0.0701782405376434  0.00117973668164016 0.000293699709126666 1.08161559238738e-05 0.000211938678703463 2.92127498043259e-05
  0.0710429102182388  0.00118654880960414 0.000314817659725223  2.4668309078921e-05 0.000292146849015433 2.78002457514548e-05
  0.0719198510050774  0.00119307668233687 0.000445851817203578 2.92221192186519e-05 0.000358886600006498 2.64537848296267e-05
  0.0727967917919159  0.00119997292452345 0.000438033735692377 2.76863266144777e-05  0.00039766378756896 2.51880921751364e-05
  0.0736737176775932  0.00120652283363855  0.00047157808585938 2.85582267291665e-05  0.00040244421829575 2.39973275808745e-05
  0.0745681747794151   0.0012133663318285 0.000397474395668184 2.61559011223326e-05 0.000373562621165304  2.2854496028015e-05
  0.0754450783133507  0.00122029356858583 0.000305831181595133  2.2850965220598e-05 0.000319577669208164 2.17994930470563e-05
  0.0763219818472862  0.00122687568475523 0.000205801557645289 1.86916980607079e-05 0.000251496393117806 2.08047536789209e-05
  0.0771813243627548  0.00123373097119883 0.000154409644850908 1.61831923369152e-05  0.00018328024567257 1.98845393951138e-05
  0.0780582129955292  0.00124068699014144 9.04659065901447e-05 1.19018995649804e-05 0.000123562523546641 1.89975106413301e-05
  0.0789350792765617  0.00124697254553806 3.97715357237387e-05 8.17245397986894e-06 8.23490846526104e-05 1.81594594473079e-05
  0.0798207074403763  0.00125399384128837 1.74146402792219e-05 5.76325998534662e-06 6.40066606221051e-05 1.73595328791115e-05
  0.0806975588202477  0.00126062557005899 3.44626483228305e-05 7.57283374656378e-06 6.86693581607352e-05 1.66105016064328e-05
  0.0815744027495384  0.00126726690936743 6.14549502391355e-05 9.78768321740443e-06 9.17894302816544e-05 1.59015079417613e-05
  0.0824512392282486  0.00127443139915255 0.000117464292884958 1.32082639891367e-05 0.000126229172596424 1.52300450719436e-05
  0.0833280608057976  0.00128127980803188  0.00016395570232214 1.54443585583384e-05 0.000163512083823242 1.45936971638512e-05
  0.0842048674821853   0.0012879483625731 0.000180453557118768 1.55812237818113e-05  0.00019550112941698 1.39902927491016e-05
    0.08507289737463  0.00129492906509856 0.000185650721619041 1.56961887211175e-05 0.000215639058363981 1.34233990112965e-05
  0.0859496966004372  0.00130145355196604 0.000192869110843379 1.59773393423753e-05 0.000220659259129291 1.28796615491009e-05
  0.0868264585733414  0.00130849750402205 0.000191908054454346 1.58592796765601e-05  0.00020963786914923 1.23632638586184e-05
  0.0877032354474068  0.00131554909228435 0.000149062705197457 1.39929857239275e-05 0.000184909108254101 1.18725178124531e-05
  0.0885799899697304  0.00132209953040403 0.000119160176616683 1.24885544521643e-05 0.000151080194880814 1.14059080129817e-05
  0.0894567370414734  0.00132932729523586 9.09775615286178e-05 1.04647523223046e-05  0.00011403127143802 1.09620574895359e-05
  0.0903422459959984  0.00133596855649531 7.04351275968331e-05 9.23991341016138e-06 7.95066785965407e-05 1.05354826439709e-05
  0.0912189707159996  0.00134286421135509 3.82946927841156e-05 6.91568752076741e-06 5.33882988903376e-05 1.01334171431606e-05
  0.0920956805348396  0.00134995391416223 2.78505261134124e-05 5.93855248593272e-06 3.87460588718904e-05 9.75038452590843e-06
  0.0929723829030991  0.00135654510488804 5.21022136985373e-05 7.84844661828113e-06  3.6836455219282e-05 9.38529198569616e-06
  0.0938490852713585  0.00136364923926721 7.60938812604537e-05 9.35472443832366e-06  4.6749160762043e-05 9.03716476091514e-06
  0.0947257727384568  0.00137091930551369 7.87563110564165e-05 9.45780481611336e-06 6.56667391817501e-05 8.70505921262731e-06
  0.0956024304032326  0.00137753308632818 0.000132080257069999   1.171600593266e-05 8.95189954377503e-05 8.38807874833442e-06
  0.0964703261852264  0.00138460918850364 0.000156083551060735 1.26587991173331e-05 0.000113531177376058 8.08837760053977e-06
  0.0973469614982605  0.00139123772309059 0.000192056255180765 1.39778712258177e-05 0.000133958899851394 7.79913790343422e-06
  0.0982236117124558  0.00139821691742891 0.000198513154188767 1.41489329512934e-05 0.000147224744942784 7.52273072216911e-06
  0.0991002172231674  0.00140551919473569 0.000179966265750087 1.34128870487093e-05 0.000151392230300362 7.25849419698311e-06
  0.0999768376350403  0.00141216873853176  0.00016346071748318 1.27532466832207e-05 0.000146112245350017 7.00575380790018e-06
   0.100853428244591  0.00141932528999211  0.00015368719281497 1.19493380567617e-05 0.000132452624016429 6.76399265883111e-06
   0.101738780736923  0.00142637886538915 0.000131353433577323 1.10348722428501e-05 0.000112493746802188 6.53027454633463e-06
   0.102615356445312  0.00143304902491363 8.17252243948509e-05 8.70950368052169e-06 8.95487239041471e-05 6.30873883205086e-06
    0.10349190980196  0.00144022377932753 7.95417140126893e-05 8.56708399888852e-06  6.6491983494758e-05 6.09654054529089e-06
   0.104368470609188  0.00144737808611624 3.80010495833143e-05 5.97442753247328e-06 4.60053157761082e-05 5.89319664599405e-06
   0.105245001614094  0.00145425040110908 3.34080622262107e-05 5.60645377152658e-06  3.0020990687017e-05  5.6982713173826e-06
   0.106121525168419  0.00146144208632641 2.77124818368399e-05  5.1224138761382e-06 1.95221726782833e-05  5.5113530452739e-06
    0.10698926448822   0.0014679381270699 1.33739965544734e-05 3.55440003922034e-06 1.45178747343991e-05 5.33379517874978e-06
   0.107874527573586   0.0014751645129429 2.28008212755051e-05 4.49699571935825e-06 1.40912161942932e-05 5.15997545414007e-06
   0.108742244541645   0.0014823233607038 2.08609809428127e-05 4.31517736269315e-06 1.68402358276689e-05 4.99642519268618e-06
   0.109618715941906  0.00148904313809714  2.6071156980143e-05 4.76781272119242e-06 2.11247704583742e-05 4.83775168415804e-06
   0.110495172441006  0.00149626197987321 3.43214691508308e-05 5.40214617521587e-06 2.53253665586198e-05  4.6853419971724e-06
   0.111371606588364  0.00150348581734439 3.79650140371209e-05 5.66504401472248e-06  2.8184775984637e-05 4.53889637531741e-06
   0.112256810069084  0.00151027245806351 2.58000497470681e-05 4.74720521127102e-06 2.89719628948469e-05 4.39674830880897e-06
   0.113141991198063  0.00151771157623857 3.23477694659857e-05 5.25225740810336e-06 2.74953637126364e-05 4.26013511474197e-06
   0.114018388092518  0.00152464032775102 2.05137797660455e-05 4.12821785633081e-06 2.41947815474363e-05 4.13006224667209e-06
   0.114894777536392   0.0015315486867135 2.86433738757027e-05 4.75074785201616e-06 1.98232021950158e-05 4.00492216133454e-06
   0.115771144628525   0.0015387972618505 1.51329680179255e-05 3.60461942426952e-06 1.53098686177341e-05 3.88449535484531e-06
   0.116647519171238  0.00154571580980638 7.98850465172275e-06 2.81873537415311e-06 1.15399050392201e-05 3.76856105736899e-06
   0.117523863911629  0.00155281947980845 9.23432034293212e-06 2.96524560148011e-06  9.1748090156306e-06 3.65692881728763e-06
   0.118382669985294  0.00155998115255681 5.64181082697015e-06 2.51295218534107e-06 8.52658080079554e-06  3.5515142754167e-06
   0.119258977472782  0.00156691425719808 1.02703703725521e-05 3.08210516928832e-06 9.50279978516301e-06 3.44784105971631e-06
    0.12013528496027    0.001574185324247 1.27652537336384e-05 3.34753194662427e-06 1.17297656256492e-05 3.34792969491573e-06
   0.121011562645435  0.00158112787970411 1.46099499888479e-05 3.53645805989152e-06 1.45599194964605e-05 3.25161468498641e-06
   0.121887840330601  0.00158825401176106 2.55395619199694e-05 4.44208821147479e-06  1.7254959538498e-05 3.15874193417424e-06
   0.122764103114605  0.00159553781632188 2.01072248285973e-05 4.03195498326807e-06  1.9139006060801e-05 3.06916614986373e-06
   0.123640343546867  0.00160218800127448  2.9906127845852e-05 4.46235459753822e-06  1.9738962968659e-05 2.98274364178983e-06
   0.124516569077969  0.00160963312221054 2.21695892734605e-05  3.8828736180684e-06 1.88657982582544e-05 2.89935199938108e-06
   0.125392779707909  0.00161677648408432 2.61679968313305e-05 4.14184396565624e-06 1.66594706792231e-05 2.81885421894047e-06
   0.126268982887268  0.00162359343615255 2.15493856124721e-05 3.78008244099132e-06 1.35448206845092e-05  2.7411315799318e-06
   0.127145171165466   0.0016310498547603 1.45802751789359e-05 3.17066201406761e-06 1.01497727867489e-05 2.66607580289587e-06
   0.128021329641342  0.00163817990579198 8.89877707366889e-06   2.580895396889e-06 7.18457151663091e-06 2.59357302020762e-06
   0.128897488117218  0.00164503524208309 1.24276053926695e-05 2.93039538925548e-06 5.30460009474494e-06 2.52351921799349e-06
   0.129773616790771  0.00165250249939263 1.35845397919506e-05 3.02111942469229e-06 5.00010681726777e-06 2.45583271035364e-06
   0.130649745464325  0.00165949256705145 2.14097075743643e-05 3.65894558995767e-06 6.47961694220667e-06  2.3903893540358e-06
   0.131525844335556  0.00166666348039883 1.19872705511626e-05 2.84125616897436e-06 9.66995696369644e-06 2.32711612161949e-06
   0.132401943206787  0.00167396425898398 1.57086392555461e-05 3.16244582280388e-06 1.42049148282615e-05 2.26592446754003e-06
   0.133277997374535  0.00168084002219842 2.23035168900952e-05 3.68805291945022e-06 1.94936790857112e-05 2.20673335949673e-06
   0.134162828326225  0.00168804840588296 2.82642093331064e-05   3.944075672574e-06 2.48731050156055e-05 2.14890063065215e-06
    0.13503885269165  0.00169523417185893 3.61908087897952e-05 4.41490838670224e-06 2.95049831454783e-05 2.09349883267356e-06
