#      z (A) rho (1e-6/A2) irho (1e-6/A2) rhoM (1e-6/A2) theta (degrees)
-77.09183575   2.07100061   0.00000000   0.00000000   0.00000000
-76.99183575   2.07100061   0.00000000   0.00000000   0.00000000
-76.89183575   2.07100062   0.00000000   0.00000000   0.00000000
-76.79183575   2.07100063   0.00000000   0.00000000   0.00000000
-76.69183575   2.07100064   0.00000000   0.00000000   0.00000000
-76.59183575   2.07100065   0.00000000   0.00000000   0.00000000
-76.49183575   2.07100065   0.00000000   0.00000000   0.00000000
-76.39183575   2.07100066   0.00000000   0.00000000   0.00000000
-76.29183575   2.07100067   0.00000000   0.00000000   0.00000000
-76.19183575   2.07100068   0.00000000   0.00000000   0.00000000
-76.09183575   2.07100069   0.00000000   0.00000000   0.00000000
-75.99183575   2.07100070   0.00000000   0.00000000   0.00000000
-75.89183575   2.07100070   0.00000000   0.00000000   0.00000000
-75.79183575   2.07100071   0.00000000   0.00000000   0.00000000
-75.69183575   2.07100072   0.00000000   0.00000000   0.00000000
-75.59183575   2.07100073   0.00000000   0.00000000   0.00000000
-75.49183575   2.07100074   0.00000000   0.00000000   0.00000000
-75.39183575   2.07100075   0.00000000   0.00000000   0.00000000
-75.29183575   2.07100076   0.00000000   0.00000000   0.00000000
-75.19183575   2.07100077   0.00000000   0.00000000   0.00000000
-75.09183575   2.07100078   0.00000000   0.00000000   0.00000000
-74.99183575   2.07100079   0.00000000   0.00000000   0.00000000
-74.89183575   2.07100080   0.00000000   0.00000000   0.00000000
-74.79183575   2.07100081   0.00000000   0.00000000   0.00000000
-74.69183575   2.07100082   0.00000000   0.00000000   0.00000000
-74.59183575   2.07100083   0.00000000   0.00000000   0.00000000
-74.49183575   2.07100084   0.00000000   0.00000000   0.00000000
-74.39183575   2.07100085   0.00000000   0.00000000   0.00000000
-74.29183575   2.07100086   0.00000000   0.00000000   0.00000000
-74.19183575   2.07100087   0.00000000   0.00000000   0.00000000
-74.09183575   2.07100088   0.00000000   0.00000000   0.00000000
-73.99183575   2.07100089   0.00000000   0.00000000   0.00000000
-73.89183575   2.07100090   0.00000000   0.00000000   0.00000000
-73.79183575   2.07100092   0.00000000   0.00000000   0.00000000
-73.69183575   2.07100093   0.00000000   0.00000000   0.00000000
-73.59183575   2.07100094   0.00000000   0.00000000   0.00000000
-73.49183575   2.07100095   0.00000000   0.00000000   0.00000000
-73.39183575   2.07100096   0.00000000   0.00000000   0.00000000
-73.29183575   2.07100097   0.00000000   0.00000000   0.00000000
-73.19183575   2.07100099   0.00000000   0.00000000   0.00000000
-73.09183575   2.07100100   0.00000000   0.00000000   0.00000000
-72.99183575   2.07100101   0.00000000   0.00000000   0.00000000
-72.89183575   2.07100102   0.00000000   0.00000000   0.00000000
-72.79183575   2.07100103   0.00000000   0.00000000   0.00000000
-72.69183575   2.07100105   0.00000000   0.00000000   0.00000000
-72.59183575   2.07100106   0.00000000   0.00000000   0.00000000
-72.49183575   2.07100107   0.00000000   0.00000000   0.00000000
-72.39183575   2.07100109   0.00000000   0.00000000   0.00000000
-72.29183575   2.07100110   0.00000000   0.00000000   0.00000000
-72.19183575   2.07100111   0.00000000   0.00000000   0.00000000
-72.09183575   2.07100113   0.00000000   0.00000000   0.00000000
-71.99183575   2.07100114   0.00000000   0.00000000   0.00000000
-71.89183575   2.07100115   0.00000000   0.00000000   0.00000000
-71.79183575   2.07100117   0.00000000   0.00000000   0.00000000
-71.69183575   2.07100118   0.00000000   0.00000000   0.00000000
-71.59183575   2.07100120   0.00000000   0.00000000   0.00000000
-71.49183575   2.07100121   0.00000000   0.00000000   0.00000000
-71.39183575   2.07100123   0.00000000   0.00000000   0.00000000
-71.29183575   2.07100124   0.00000000   0.00000000   0.00000000
-71.19183575   2.07100126   0.00000000   0.00000000   0.00000000
-71.09183575   2.07100127   0.00000000   0.00000000   0.00000000
-70.99183575   2.07100129   0.00000000   0.00000000   0.00000000
-70.89183575   2.07100130   0.00000000   0.00000000   0.00000000
-70.79183575   2.07100132   0.00000000   0.00000000   0.00000000
-70.69183575   2.07100133   0.00000000   0.00000000   0.00000000
-70.59183575   2.07100135   0.00000000   0.00000000   0.00000000
-70.49183575   2.07100136   0.00000000   0.00000000   0.00000000
-70.39183575   2.07100138   0.00000000   0.00000000   0.00000000
-70.29183575   2.07100140   0.00000000   0.00000000   0.00000000
-70.19183575   2.07100141   0.00000000   0.00000000   0.00000000
-70.09183575   2.07100143   0.00000000   0.00000000   0.00000000
-69.99183575   2.07100145   0.00000000   0.00000000   0.00000000
-69.89183575   2.07100146   0.00000000   0.00000000   0.00000000
-69.79183575   2.07100148   0.00000000   0.00000000   0.00000000
-69.69183575   2.07100150   0.00000000   0.00000000   0.00000000
-69.59183575   2.07100152   0.00000000   0.00000000   0.00000000
-69.49183575   2.07100153   0.00000000   0.00000000   0.00000000
-69.39183575   2.07100155   0.00000000   0.00000000   0.00000000
-69.29183575   2.07100157   0.00000000   0.00000000   0.00000000
-69.19183575   2.07100159   0.00000000   0.00000000   0.00000000
-69.09183575   2.07100161   0.00000000   0.00000000   0.00000000
-68.99183575   2.07100163   0.00000000   0.00000000   0.00000000
-68.89183575   2.07100165   0.00000000   0.00000000   0.00000000
-68.79183575   2.07100167   0.00000000   0.00000000   0.00000000
-68.69183575   2.07100168   0.00000000   0.00000000   0.00000000
-68.59183575   2.07100170   0.00000000   0.00000000   0.00000000
-68.49183575   2.07100172   0.00000000   0.00000000   0.00000000
-68.39183575   2.07100174   0.00000000   0.00000000   0.00000000
-68.29183575   2.07100176   0.00000000   0.00000000   0.00000000
-68.19183575   2.07100178   0.00000000   0.00000000   0.00000000
-68.09183575   2.07100181   0.00000000   0.00000000   0.00000000
-67.99183575   2.07100183   0.00000000   0.00000000   0.00000000
-67.89183575   2.07100185   0.00000000   0.00000000   0.00000000
-67.79183575   2.07100187   0.00000000   0.00000000   0.00000000
-67.69183575   2.07100189   0.00000000   0.00000000   0.00000000
-67.59183575   2.07100191   0.00000000   0.00000000   0.00000000
-67.49183575   2.07100193   0.00000000   0.00000000   0.00000000
-67.39183575   2.07100196   0.00000000   0.00000000   0.00000000
-67.29183575   2.07100198   0.00000000   0.00000000   0.00000000
-67.19183575   2.07100200   0.00000000   0.00000000   0.00000000
-67.09183575   2.07100202   0.00000000   0.00000000   0.00000000
-66.99183575   2.07100205   0.00000000   0.00000000   0.00000000
-66.89183575   2.07100207   0.00000000   0.00000000   0.00000000
-66.79183575   2.07100209   0.00000000   0.00000000   0.00000000
-66.69183575   2.07100212   0.00000000   0.00000000   0.00000000
-66.59183575   2.07100214   0.00000000   0.00000000   0.00000000
-66.49183575   2.07100217   0.00000000   0.00000000   0.00000000
-66.39183575   2.07100219   0.00000000   0.00000000   0.00000000
-66.29183575   2.07100222   0.00000000   0.00000000   0.00000000
-66.19183575   2.07100224   0.00000000   0.00000000   0.00000000
-66.09183575   2.07100227   0.00000000   0.00000000   0.00000000
-65.99183575   2.07100229   0.00000000   0.00000000   0.00000000
-65.89183575   2.07100232   0.00000000   0.00000000   0.00000000
-65.79183575   2.07100234   0.00000000   0.00000000   0.00000000
-65.69183575   2.07100237   0.00000000   0.00000000   0.00000000
-65.59183575   2.07100240   0.00000000   0.00000000   0.00000000
-65.49183575   2.07100242   0.00000000   0.00000000   0.00000000
-65.39183575   2.07100245   0.00000000   0.00000000   0.00000000
-65.29183575   2.07100248   0.00000000   0.00000000   0.00000000
-65.19183575   2.07100251   0.00000000   0.00000000   0.00000000
-65.09183575   2.07100254   0.00000000   0.00000000   0.00000000
-64.99183575   2.07100256   0.00000000   0.00000000   0.00000000
-64.89183575   2.07100259   0.00000000   0.00000000   0.00000000
-64.79183575   2.07100262   0.00000000   0.00000000   0.00000000
-64.69183575   2.07100265   0.00000000   0.00000000   0.00000000
-64.59183575   2.07100268   0.00000000   0.00000000   0.00000000
-64.49183575   2.07100271   0.00000000   0.00000000   0.00000000
-64.39183575   2.07100274   0.00000000   0.00000000   0.00000000
-64.29183575   2.07100277   0.00000000   0.00000000   0.00000000
-64.19183575   2.07100280   0.00000000   0.00000000   0.00000000
-64.09183575   2.07100283   0.00000000   0.00000000   0.00000000
-63.99183575   2.07100286   0.00000000   0.00000000   0.00000000
-63.89183575   2.07100289   0.00000000   0.00000000   0.00000000
-63.79183575   2.07100293   0.00000000   0.00000000   0.00000000
-63.69183575   2.07100296   0.00000000   0.00000000   0.00000000
-63.59183575   2.07100299   0.00000000   0.00000000   0.00000000
-63.49183575   2.07100302   0.00000000   0.00000000   0.00000000
-63.39183575   2.07100306   0.00000000   0.00000000   0.00000000
-63.29183575   2.07100309   0.00000000   0.00000000   0.00000000
-63.19183575   2.07100312   0.00000000   0.00000000   0.00000000
-63.09183575   2.07100316   0.00000000   0.00000000   0.00000000
-62.99183575   2.07100319   0.00000000   0.00000000   0.00000000
-62.89183575   2.07100323   0.00000000   0.00000000   0.00000000
-62.79183575   2.07100326   0.00000000   0.00000000   0.00000000
-62.69183575   2.07100330   0.00000000   0.00000000   0.00000000
-62.59183575   2.07100333   0.00000000   0.00000000   0.00000000
-62.49183575   2.07100337   0.00000000   0.00000000   0.00000000
-62.39183575   2.07100340   0.00000000   0.00000000   0.00000000
-62.29183575   2.07100344   0.00000000   0.00000000   0.00000000
-62.19183575   2.07100348   0.00000000   0.00000000   0.00000000
-62.09183575   2.07100352   0.00000000   0.00000000   0.00000000
-61.99183575   2.07100355   0.00000000   0.00000000   0.00000000
-61.89183575   2.07100359   0.00000000   0.00000000   0.00000000
-61.79183575   2.07100363   0.00000000   0.00000000   0.00000000
-61.69183575   2.07100367   0.00000000   0.00000000   0.00000000
-61.59183575   2.07100371   0.00000000   0.00000000   0.00000000
-61.49183575   2.07100375   0.00000000   0.00000000   0.00000000
-61.39183575   2.07100379   0.00000000   0.00000000   0.00000000
-61.29183575   2.07100383   0.00000000   0.00000000   0.00000000
-61.19183575   2.07100387   0.00000000   0.00000000   0.00000000
-61.09183575   2.07100391   0.00000000   0.00000000   0.00000000
-60.99183575   2.07100395   0.00000000   0.00000000   0.00000000
-60.89183575   2.07100399   0.00000000   0.00000000   0.00000000
-60.79183575   2.07100403   0.00000000   0.00000000   0.00000000
-60.69183575   2.07100408   0.00000000   0.00000000   0.00000000
-60.59183575   2.07100412   0.00000000   0.00000000   0.00000000
-60.49183575   2.07100416   0.00000000   0.00000000   0.00000000
-60.39183575   2.07100421   0.00000000   0.00000000   0.00000000
-60.29183575   2.07100425   0.00000000   0.00000000   0.00000000
-60.19183575   2.07100430   0.00000000   0.00000000   0.00000000
-60.09183575   2.07100434   0.00000000   0.00000000   0.00000000
-59.99183575   2.07100439   0.00000000   0.00000000   0.00000000
-59.89183575   2.07100443   0.00000000   0.00000000   0.00000000
-59.79183575   2.07100448   0.00000000   0.00000000   0.00000000
-59.69183575   2.07100453   0.00000000   0.00000000   0.00000000
-59.59183575   2.07100457   0.00000000   0.00000000   0.00000000
-59.49183575   2.07100462   0.00000000   0.00000000   0.00000000
-59.39183575   2.07100467   0.00000000   0.00000000   0.00000000
-59.29183575   2.07100472   0.00000000   0.00000000   0.00000000
-59.19183575   2.07100476   0.00000000   0.00000000   0.00000000
-59.09183575   2.07100481   0.00000000   0.00000000   0.00000000
-58.99183575   2.07100486   0.00000000   0.00000000   0.00000000
-58.89183575   2.07100491   0.00000000   0.00000000   0.00000000
-58.79183575   2.07100496   0.00000000   0.00000000   0.00000000
-58.69183575   2.07100502   0.00000000   0.00000000   0.00000000
-58.59183575   2.07100507   0.00000000   0.00000000   0.00000000
-58.49183575   2.07100512   0.00000000   0.00000000   0.00000000
-58.39183575   2.07100517   0.00000000   0.00000000   0.00000000
-58.29183575   2.07100522   0.00000000   0.00000000   0.00000000
-58.19183575   2.07100528   0.00000000   0.00000000   0.00000000
-58.09183575   2.07100533   0.00000000   0.00000000   0.00000000
-57.99183575   2.07100539   0.00000000   0.00000000   0.00000000
-57.89183575   2.07100544   0.00000000   0.00000000   0.00000000
-57.79183575   2.07100550   0.00000000   0.00000000   0.00000000
-57.69183575   2.07100555   0.00000000   0.00000000   0.00000000
-57.59183575   2.07100561   0.00000000   0.00000000   0.00000000
-57.49183575   2.07100566   0.00000000   0.00000000   0.00000000
-57.39183575   2.07100572   0.00000000   0.00000000   0.00000000
-57.29183575   2.07100578   0.00000000   0.00000000   0.00000000
-57.19183575   2.07100584   0.00000000   0.00000000   0.00000000
-57.09183575   2.07100590   0.00000000   0.00000000   0.00000000
-56.99183575   2.07100596   0.00000000   0.00000000   0.00000000
-56.89183575   2.07100602   0.00000000   0.00000000   0.00000000
-56.79183575   2.07100608   0.00000000   0.00000000   0.00000000
-56.69183575   2.07100614   0.00000000   0.00000000   0.00000000
-56.59183575   2.07100620   0.00000000   0.00000000   0.00000000
-56.49183575   2.07100626   0.00000000   0.00000000   0.00000000
-56.39183575   2.07100632   0.00000000   0.00000000   0.00000000
-56.29183575   2.07100639   0.00000000   0.00000000   0.00000000
-56.19183575   2.07100645   0.00000000   0.00000000   0.00000000
-56.09183575   2.07100651   0.00000000   0.00000000   0.00000000
-55.99183575   2.07100658   0.00000000   0.00000000   0.00000000
-55.89183575   2.07100664   0.00000000   0.00000000   0.00000000
-55.79183575   2.07100671   0.00000000   0.00000000   0.00000000
-55.69183575   2.07100677   0.00000000   0.00000000   0.00000000
-55.59183575   2.07100684   0.00000000   0.00000000   0.00000000
-55.49183575   2.07100691   0.00000000   0.00000000   0.00000000
-55.39183575   2.07100698   0.00000000   0.00000000   0.00000000
-55.29183575   2.07100704   0.00000000   0.00000000   0.00000000
-55.19183575   2.07100711   0.00000000   0.00000000   0.00000000
-55.09183575   2.07100718   0.00000000   0.00000000   0.00000000
-54.99183575   2.07100725   0.00000000   0.00000000   0.00000000
-54.89183575   2.07100732   0.00000000   0.00000000   0.00000000
-54.79183575   2.07100740   0.00000000   0.00000000   0.00000000
-54.69183575   2.07100747   0.00000000   0.00000000   0.00000000
-54.59183575   2.07100754   0.00000000   0.00000000   0.00000000
-54.49183575   2.07100761   0.00000000   0.00000000   0.00000000
-54.39183575   2.07100769   0.00000000   0.00000000   0.00000000
-54.29183575   2.07100776   0.00000000   0.00000000   0.00000000
-54.19183575   2.07100784   0.00000000   0.00000000   0.00000000
-54.09183575   2.07100791   0.00000000   0.00000000   0.00000000
-53.99183575   2.07100799   0.00000000   0.00000000   0.00000000
-53.89183575   2.07100807   0.00000000   0.00000000   0.00000000
-53.79183575   2.07100814   0.00000000   0.00000000   0.00000000
-53.69183575   2.07100822   0.00000000   0.00000000   0.00000000
-53.59183575   2.07100830   0.00000000   0.00000000   0.00000000
-53.49183575   2.07100838   0.00000000   0.00000000   0.00000000
-53.39183575   2.07100846   0.00000000   0.00000000   0.00000000
-53.29183575   2.07100854   0.00000000   0.00000000   0.00000000
-53.19183575   2.07100862   0.00000000   0.00000000   0.00000000
-53.09183575   2.07100870   0.00000000   0.00000000   0.00000000
-52.99183575   2.07100879   0.00000000   0.00000000   0.00000000
-52.89183575   2.07100887   0.00000000   0.00000000   0.00000000
-52.79183575   2.07100895   0.00000000   0.00000000   0.00000000
-52.69183575   2.07100904   0.00000000   0.00000000   0.00000000
-52.59183575   2.07100912   0.00000000   0.00000000   0.00000000
-52.49183575   2.07100921   0.00000000   0.00000000   0.00000000
-52.39183575   2.07100930   0.00000000   0.00000000   0.00000000
-52.29183575   2.07100938   0.00000000   0.00000000   0.00000000
-52.19183575   2.07100947   0.00000000   0.00000000   0.00000000
-52.09183575   2.07100956   0.00000000   0.00000000   0.00000000
-51.99183575   2.07100965   0.00000000   0.00000000   0.00000000
-51.89183575   2.07100974   0.00000000   0.00000000   0.00000000
-51.79183575   2.07100983   0.00000000   0.00000000   0.00000000
-51.69183575   2.07100992   0.00000000   0.00000000   0.00000000
-51.59183575   2.07101002   0.00000000   0.00000000   0.00000000
-51.49183575   2.07101011   0.00000000   0.00000000   0.00000000
-51.39183575   2.07101020   0.00000000   0.00000000   0.00000000
-51.29183575   2.07101030   0.00000000   0.00000000   0.00000000
-51.19183575   2.07101039   0.00000000   0.00000000   0.00000000
-51.09183575   2.07101049   0.00000000   0.00000000   0.00000000
-50.99183575   2.07101059   0.00000000   0.00000000   0.00000000
-50.89183575   2.07101068   0.00000000   0.00000000   0.00000000
-50.79183575   2.07101078   0.00000000   0.00000000   0.00000000
-50.69183575   2.07101088   0.00000000   0.00000000   0.00000000
-50.59183575   2.07101098   0.00000000   0.00000000   0.00000000
-50.49183575   2.07101108   0.00000000   0.00000000   0.00000000
-50.39183575   2.07101118   0.00000000   0.00000000   0.00000000
-50.29183575   2.07101128   0.00000000   0.00000000   0.00000000
-50.19183575   2.07101139   0.00000000   0.00000000   0.00000000
-50.09183575   2.07101149   0.00000000   0.00000000   0.00000000
-49.99183575   2.07101160   0.00000000   0.00000000   0.00000000
-49.89183575   2.07101170   0.00000000   0.00000000   0.00000000
-49.79183575   2.07101181   0.00000000   0.00000000   0.00000000
-49.69183575   2.07101191   0.00000000   0.00000000   0.00000000
-49.59183575   2.07101202   0.00000000   0.00000000   0.00000000
-49.49183575   2.07101213   0.00000000   0.00000000   0.00000000
-49.39183575   2.07101224   0.00000000   0.00000000   0.00000000
-49.29183575   2.07101235   0.00000000   0.00000000   0.00000000
-49.19183575   2.07101246   0.00000000   0.00000000   0.00000000
-49.09183575   2.07101257   0.00000000   0.00000000   0.00000000
-48.99183575   2.07101269   0.00000000   0.00000000   0.00000000
-48.89183575   2.07101280   0.00000000   0.00000000   0.00000000
-48.79183575   2.07101291   0.00000000   0.00000000   0.00000000
-48.69183575   2.07101303   0.00000000   0.00000000   0.00000000
-48.59183575   2.07101314   0.00000000   0.00000000   0.00000000
-48.49183575   2.07101326   0.00000000   0.00000000   0.00000000
-48.39183575   2.07101338   0.00000000   0.00000000   0.00000000
-48.29183575   2.07101350   0.00000000   0.00000000   0.00000000
-48.19183575   2.07101362   0.00000000   0.00000000   0.00000000
-48.09183575   2.07101374   0.00000000   0.00000000   0.00000000
-47.99183575   2.07101386   0.00000000   0.00000000   0.00000000
-47.89183575   2.07101398   0.00000000   0.00000000   0.00000000
-47.79183575   2.07101410   0.00000000   0.00000000   0.00000000
-47.69183575   2.07101423   0.00000000   0.00000000   0.00000000
-47.59183575   2.07101435   0.00000000   0.00000000   0.00000000
-47.49183575   2.07101448   0.00000000   0.00000000   0.00000000
-47.39183575   2.07101460   0.00000000   0.00000000   0.00000000
-47.29183575   2.07101473   0.00000000   0.00000000   0.00000000
-47.19183575   2.07101486   0.00000000   0.00000000   0.00000000
-47.09183575   2.07101499   0.00000000   0.00000000   0.00000000
-46.99183575   2.07101512   0.00000000   0.00000000   0.00000000
-46.89183575   2.07101525   0.00000000   0.00000000   0.00000000
-46.79183575   2.07101538   0.00000000   0.00000000   0.00000000
-46.69183575   2.07101552   0.00000000   0.00000000   0.00000000
-46.59183575   2.07101565   0.00000000   0.00000000   0.00000000
