#      z (A) rho (1e-6/A2) irho (1e-6/A2) rhoM (1e-6/A2) theta (degrees)
-104.09640295   2.06933855   0.00000000   0.00000000 270.00000000
-103.99640295   2.06932276   0.00000000   0.00000000 270.00000000
-103.89640295   2.06930684   0.00000000   0.00000000 270.00000000
-103.79640295   2.06929077   0.00000000   0.00000000 270.00000000
-103.69640295   2.06927457   0.00000000   0.00000000 270.00000000
-103.59640295   2.06925823   0.00000000   0.00000000 270.00000000
-103.49640295   2.06924175   0.00000000   0.00000000 270.00000000
-103.39640295   2.06922512   0.00000000   0.00000000 270.00000000
-103.29640295   2.06920835   0.00000000   0.00000000 270.00000000
-103.19640295   2.06919144   0.00000000   0.00000000 270.00000000
-103.09640295   2.06917438   0.00000000   0.00000000 270.00000000
-102.99640295   2.06915717   0.00000000   0.00000000 270.00000000
-102.89640295   2.06913982   0.00000000   0.00000000 270.00000000
-102.79640295   2.06912231   0.00000000   0.00000000 270.00000000
-102.69640295   2.06910466   0.00000000   0.00000000 270.00000000
-102.59640295   2.06908686   0.00000000   0.00000000 270.00000000
-102.49640295   2.06906890   0.00000000   0.00000000 270.00000000
-102.39640295   2.06905079   0.00000000   0.00000000 270.00000000
-102.29640295   2.06903252   0.00000000   0.00000000 270.00000000
-102.19640295   2.06901410   0.00000000   0.00000000 270.00000000
-102.09640295   2.06899553   0.00000000   0.00000000 270.00000000
-101.99640295   2.06897679   0.00000000   0.00000000 270.00000000
-101.89640295   2.06895790   0.00000000   0.00000000 270.00000000
-101.79640295   2.06893884   0.00000000   0.00000000 270.00000000
-101.69640295   2.06891962   0.00000000   0.00000000 270.00000000
-101.59640295   2.06890024   0.00000000   0.00000000 270.00000000
-101.49640295   2.06888070   0.00000000   0.00000000 270.00000000
-101.39640295   2.06886099   0.00000000   0.00000000 270.00000000
-101.29640295   2.06884111   0.00000000   0.00000000 270.00000000
-101.19640295   2.06882106   0.00000000   0.00000000 270.00000000
-101.09640295   2.06880085   0.00000000   0.00000000 270.00000000
-100.99640295   2.06878047   0.00000000   0.00000000 270.00000000
-100.89640295   2.06875991   0.00000000   0.00000000 270.00000000
-100.79640295   2.06873918   0.00000000   0.00000000 270.00000000
-100.69640295   2.06871828   0.00000000   0.00000000 270.00000000
-100.59640295   2.06869720   0.00000000   0.00000000 270.00000000
-100.49640295   2.06867594   0.00000000   0.00000000 270.00000000
-100.39640295   2.06865451   0.00000000   0.00000000 270.00000000
-100.29640295   2.06863289   0.00000000   0.00000000 270.00000000
-100.19640295   2.06861110   0.00000000   0.00000000 270.00000000
-100.09640295   2.06858912   0.00000000   0.00000000 270.00000000
-99.99640295   2.06856696   0.00000000   0.00000000 270.00000000
-99.89640295   2.06854462   0.00000000   0.00000000 270.00000000
-99.79640295   2.06852209   0.00000000   0.00000000 270.00000000
-99.69640295   2.06849937   0.00000000   0.00000000 270.00000000
-99.59640295   2.06847646   0.00000000   0.00000000 270.00000000
-99.49640295   2.06845336   0.00000000   0.00000000 270.00000000
-99.39640295   2.06843007   0.00000000   0.00000000 270.00000000
-99.29640295   2.06840659   0.00000000   0.00000000 270.00000000
-99.19640295   2.06838291   0.00000000   0.00000000 270.00000000
-99.09640295   2.06835904   0.00000000   0.00000000 270.00000000
-98.99640295   2.06833497   0.00000000   0.00000000 270.00000000
-98.89640295   2.06831070   0.00000000   0.00000000 270.00000000
-98.79640295   2.06828623   0.00000000   0.00000000 270.00000000
-98.69640295   2.06826156   0.00000000   0.00000000 270.00000000
-98.59640295   2.06823669   0.00000000   0.00000000 270.00000000
-98.49640295   2.06821161   0.00000000   0.00000000 270.00000000
-98.39640295   2.06818633   0.00000000   0.00000000 270.00000000
-98.29640295   2.06816084   0.00000000   0.00000000 270.00000000
-98.19640295   2.06813513   0.00000000   0.00000000 270.00000000
-98.09640295   2.06810922   0.00000000   0.00000000 270.00000000
-97.99640295   2.06808310   0.00000000   0.00000000 270.00000000
-97.89640295   2.06805676   0.00000000   0.00000000 270.00000000
-97.79640295   2.06803021   0.00000000   0.00000000 270.00000000
-97.69640295   2.06800344   0.00000000   0.00000000 270.00000000
-97.59640295   2.06797646   0.00000000   0.00000000 270.00000000
-97.49640295   2.06794925   0.00000000   0.00000000 270.00000000
-97.39640295   2.06792183   0.00000000   0.00000000 270.00000000
-97.29640295   2.06789418   0.00000000   0.00000000 270.00000000
-97.19640295   2.06786630   0.00000000   0.00000000 270.00000000
-97.09640295   2.06783820   0.00000000   0.00000000 270.00000000
-96.99640295   2.06780987   0.00000000   0.00000000 270.00000000
-96.89640295   2.06778132   0.00000000   0.00000000 270.00000000
-96.79640295   2.06775253   0.00000000   0.00000000 270.00000000
-96.69640295   2.06772351   0.00000000   0.00000000 270.00000000
-96.59640295   2.06769426   0.00000000   0.00000000 270.00000000
-96.49640295   2.06766477   0.00000000   0.00000000 270.00000000
-96.39640295   2.06763504   0.00000000   0.00000000 270.00000000
-96.29640295   2.06760507   0.00000000   0.00000000 270.00000000
-96.19640295   2.06757487   0.00000000   0.00000000 270.00000000
-96.09640295   2.06754442   0.00000000   0.00000000 270.00000000
-95.99640295   2.06751373   0.00000000   0.00000000 270.00000000
-95.89640295   2.06748279   0.00000000   0.00000000 270.00000000
-95.79640295   2.06745160   0.00000000   0.00000000 270.00000000
-95.69640295   2.06742017   0.00000000   0.00000000 270.00000000
-95.59640295   2.06738848   0.00000000   0.00000000 270.00000000
-95.49640295   2.06735654   0.00000000   0.00000000 270.00000000
-95.39640295   2.06732435   0.00000000   0.00000000 270.00000000
-95.29640295   2.06729190   0.00000000   0.00000000 270.00000000
-95.19640295   2.06725920   0.00000000   0.00000000 270.00000000
-95.09640295   2.06722623   0.00000000   0.00000000 270.00000000
-94.99640295   2.06719300   0.00000000   0.00000000 270.00000000
-94.89640295   2.06715951   0.00000000   0.00000000 270.00000000
-94.79640295   2.06712575   0.00000000   0.00000000 270.00000000
-94.69640295   2.06709173   0.00000000   0.00000000 270.00000000
-94.59640295   2.06705744   0.00000000   0.00000000 270.00000000
-94.49640295   2.06702288   0.00000000   0.00000000 270.00000000
-94.39640295   2.06698805   0.00000000   0.00000000 270.00000000
-94.29640295   2.06695294   0.00000000   0.00000000 270.00000000
-94.19640295   2.06691755   0.00000000   0.00000000 270.00000000
-94.09640295   2.06688189   0.00000000   0.00000000 270.00000000
-93.99640295   2.06684595   0.00000000   0.00000000 270.00000000
-93.89640295   2.06680972   0.00000000   0.00000000 270.00000000
-93.79640295   2.06677322   0.00000000   0.00000000 270.00000000
-93.69640295   2.06673642   0.00000000   0.00000000 270.00000000
-93.59640295   2.06669934   0.00000000   0.00000000 270.00000000
-93.49640295   2.06666197   0.00000000   0.00000000 270.00000000
-93.39640295   2.06662431   0.00000000   0.00000000 270.00000000
-93.29640295   2.06658636   0.00000000   0.00000000 270.00000000
-93.19640295   2.06654811   0.00000000   0.00000000 270.00000000
-93.09640295   2.06650956   0.00000000   0.00000000 270.00000000
-92.99640295   2.06647072   0.00000000   0.00000000 270.00000000
-92.89640295   2.06643157   0.00000000   0.00000000 270.00000000
-92.79640295   2.06639212   0.00000000   0.00000000 270.00000000
-92.69640295   2.06635236   0.00000000   0.00000000 270.00000000
-92.59640295   2.06631230   0.00000000   0.00000000 270.00000000
-92.49640295   2.06627193   0.00000000   0.00000000 270.00000000
-92.39640295   2.06623125   0.00000000   0.00000000 270.00000000
-92.29640295   2.06619025   0.00000000   0.00000000 270.00000000
-92.19640295   2.06614894   0.00000000   0.00000000 270.00000000
-92.09640295   2.06610731   0.00000000   0.00000000 270.00000000
-91.99640295   2.06606536   0.00000000   0.00000000 270.00000000
-91.89640295   2.06602309   0.00000000   0.00000000 270.00000000
-91.79640295   2.06598049   0.00000000   0.00000000 270.00000000
-91.69640295   2.06593757   0.00000000   0.00000000 270.00000000
-91.59640295   2.06589432   0.00000000   0.00000000 270.00000000
-91.49640295   2.06585074   0.00000000   0.00000000 270.00000000
-91.39640295   2.06580683   0.00000000   0.00000000 270.00000000
-91.29640295   2.06576258   0.00000000   0.00000000 270.00000000
-91.19640295   2.06571800   0.00000000   0.00000000 270.00000000
-91.09640295   2.06567308   0.00000000   0.00000000 270.00000000
-90.99640295   2.06562781   0.00000000   0.00000000 270.00000000
-90.89640295   2.06558221   0.00000000   0.00000000 270.00000000
-90.79640295   2.06553625   0.00000000   0.00000000 270.00000000
-90.69640295   2.06548995   0.00000000   0.00000000 270.00000000
-90.59640295   2.06544330   0.00000000   0.00000000 270.00000000
-90.49640295   2.06539630   0.00000000   0.00000000 270.00000000
-90.39640295   2.06534894   0.00000000   0.00000000 270.00000000
-90.29640295   2.06530123   0.00000000   0.00000000 270.00000000
-90.19640295   2.06525315   0.00000000   0.00000000 270.00000000
-90.09640295   2.06520472   0.00000000   0.00000000 270.00000000
-89.99640295   2.06515592   0.00000000   0.00000000 270.00000000
-89.89640295   2.06510675   0.00000000   0.00000000 270.00000000
-89.79640295   2.06505722   0.00000000   0.00000000 270.00000000
-89.69640295   2.06500732   0.00000000   0.00000000 270.00000000
-89.59640295   2.06495704   0.00000000   0.00000000 270.00000000
-89.49640295   2.06490639   0.00000000   0.00000000 270.00000000
-89.39640295   2.06485536   0.00000000   0.00000000 270.00000000
-89.29640295   2.06480394   0.00000000   0.00000000 270.00000000
-89.19640295   2.06475215   0.00000000   0.00000000 270.00000000
-89.09640295   2.06469997   0.00000000   0.00000000 270.00000000
-88.99640295   2.06464741   0.00000000   0.00000000 270.00000000
-88.89640295   2.06459445   0.00000000   0.00000000 270.00000000
-88.79640295   2.06454110   0.00000000   0.00000000 270.00000000
-88.69640295   2.06448736   0.00000000   0.00000000 270.00000000
-88.59640295   2.06443321   0.00000000   0.00000000 270.00000000
-88.49640295   2.06437867   0.00000000   0.00000000 270.00000000
-88.39640295   2.06432373   0.00000000   0.00000000 270.00000000
-88.29640295   2.06426838   0.00000000   0.00000000 270.00000000
-88.19640295   2.06421263   0.00000000   0.00000000 270.00000000
-88.09640295   2.06415646   0.00000000   0.00000000 270.00000000
-87.99640295   2.06409988   0.00000000   0.00000000 270.00000000
-87.89640295   2.06404289   0.00000000   0.00000000 270.00000000
-87.79640295   2.06398548   0.00000000   0.00000000 270.00000000
-87.69640295   2.06392765   0.00000000   0.00000000 270.00000000
-87.59640295   2.06386939   0.00000000   0.00000000 270.00000000
-87.49640295   2.06381071   0.00000000   0.00000000 270.00000000
-87.39640295   2.06375161   0.00000000   0.00000000 270.00000000
-87.29640295   2.06369207   0.00000000   0.00000000 270.00000000
-87.19640295   2.06363210   0.00000000   0.00000000 270.00000000
-87.09640295   2.06357169   0.00000000   0.00000000 270.00000000
-86.99640295   2.06351085   0.00000000   0.00000000 270.00000000
-86.89640295   2.06344956   0.00000000   0.00000000 270.00000000
-86.79640295   2.06338783   0.00000000   0.00000000 270.00000000
-86.69640295   2.06332565   0.00000000   0.00000000 270.00000000
-86.59640295   2.06326303   0.00000000   0.00000000 270.00000000
-86.49640295   2.06319995   0.00000000   0.00000000 270.00000000
-86.39640295   2.06313641   0.00000000   0.00000000 270.00000000
-86.29640295   2.06307242   0.00000000   0.00000000 270.00000000
-86.19640295   2.06300797   0.00000000   0.00000000 270.00000000
-86.09640295   2.06294306   0.00000000   0.00000000 270.00000000
-85.99640295   2.06287768   0.00000000   0.00000000 270.00000000
-85.89640295   2.06281183   0.00000000   0.00000000 270.00000000
-85.79640295   2.06274551   0.00000000   0.00000000 270.00000000
-85.69640295   2.06267871   0.00000000   0.00000000 270.00000000
-85.59640295   2.06261144   0.00000000   0.00000000 270.00000000
-85.49640295   2.06254369   0.00000000   0.00000000 270.00000000
-85.39640295   2.06247546   0.00000000   0.00000000 270.00000000
-85.29640295   2.06240674   0.00000000   0.00000000 270.00000000
-85.19640295   2.06233753   0.00000000   0.00000000 270.00000000
-85.09640295   2.06226783   0.00000000   0.00000000 270.00000000
-84.99640295   2.06219763   0.00000000   0.00000000 270.00000000
-84.89640295   2.06212694   0.00000000   0.00000000 270.00000000
-84.79640295   2.06205575   0.00000000   0.00000000 270.00000000
-84.69640295   2.06198405   0.00000000   0.00000000 270.00000000
-84.59640295   2.06191185   0.00000000   0.00000000 270.00000000
-84.49640295   2.06183914   0.00000000   0.00000000 270.00000000
-84.39640295   2.06176592   0.00000000   0.00000000 270.00000000
-84.29640295   2.06169218   0.00000000   0.00000000 270.00000000
-84.19640295   2.06161793   0.00000000   0.00000000 270.00000000
-84.09640295   2.06154315   0.00000000   0.00000000 270.00000000
-83.99640295   2.06146785   0.00000000   0.00000000 270.00000000
-83.89640295   2.06139202   0.00000000   0.00000000 270.00000000
-83.79640295   2.06131566   0.00000000   0.00000000 270.00000000
-83.69640295   2.06123877   0.00000000   0.00000000 270.00000000
-83.59640295   2.06116134   0.00000000   0.00000000 270.00000000
-83.49640295   2.06108338   0.00000000   0.00000000 270.00000000
-83.39640295   2.06100487   0.00000000   0.00000000 270.00000000
-83.29640295   2.06092581   0.00000000   0.00000000 270.00000000
-83.19640295   2.06084621   0.00000000   0.00000000 270.00000000
-83.09640295   2.06076605   0.00000000   0.00000000 270.00000000
-82.99640295   2.06068534   0.00000000   0.00000000 270.00000000
-82.89640295   2.06060407   0.00000000   0.00000000 270.00000000
-82.79640295   2.06052224   0.00000000   0.00000000 270.00000000
-82.69640295   2.06043984   0.00000000   0.00000000 270.00000000
-82.59640295   2.06035688   0.00000000   0.00000000 270.00000000
-82.49640295   2.06027334   0.00000000   0.00000000 270.00000000
-82.39640295   2.06018923   0.00000000   0.00000000 270.00000000
-82.29640295   2.06010455   0.00000000   0.00000000 270.00000000
-82.19640295   2.06001928   0.00000000   0.00000000 270.00000000
-82.09640295   2.05993343   0.00000000   0.00000000 270.00000000
-81.99640295   2.05984699   0.00000000   0.00000000 270.00000000
-81.89640295   2.05975996   0.00000000   0.00000000 270.00000000
-81.79640295   2.05967234   0.00000000   0.00000000 270.00000000
-81.69640295   2.05958411   0.00000000   0.00000000 270.00000000
-81.59640295   2.05949529   0.00000000   0.00000000 270.00000000
-81.49640295   2.05940587   0.00000000   0.00000000 270.00000000
-81.39640295   2.05931583   0.00000000   0.00000000 270.00000000
-81.29640295   2.05922519   0.00000000   0.00000000 270.00000000
-81.19640295   2.05913393   0.00000000   0.00000000 270.00000000
-81.09640295   2.05904206   0.00000000   0.00000000 270.00000000
-80.99640295   2.05894956   0.00000000   0.00000000 270.00000000
-80.89640295   2.05885644   0.00000000   0.00000000 270.00000000
-80.79640295   2.05876269   0.00000000   0.00000000 270.00000000
-80.69640295   2.05866831   0.00000000   0.00000000 270.00000000
-80.59640295   2.05857330   0.00000000   0.00000000 270.00000000
-80.49640295   2.05847764   0.00000000   0.00000000 270.00000000
-80.39640295   2.05838135   0.00000000   0.00000000 270.00000000
-80.29640295   2.05828441   0.00000000   0.00000000 270.00000000
-80.19640295   2.05818682   0.00000000   0.00000000 270.00000000
-80.09640295   2.05808858   0.00000000   0.00000000 270.00000000
-79.99640295   2.05798969   0.00000000   0.00000000 270.00000000
-79.89640295   2.05789013   0.00000000   0.00000000 270.00000000
-79.79640295   2.05778991   0.00000000   0.00000000 270.00000000
-79.69640295   2.05768903   0.00000000   0.00000000 270.00000000
-79.59640295   2.05758747   0.00000000   0.00000000 270.00000000
-79.49640295   2.05748525   0.00000000   0.00000000 270.00000000
-79.39640295   2.05738234   0.00000000   0.00000000 270.00000000
-79.29640295   2.05727876   0.00000000   0.00000000 270.00000000
-79.19640295   2.05717448   0.00000000   0.00000000 270.00000000
-79.09640295   2.05706953   0.00000000   0.00000000 270.00000000
-78.99640295   2.05696388   0.00000000   0.00000000 270.00000000
-78.89640295   2.05685753   0.00000000   0.00000000 270.00000000
-78.79640295   2.05675048   0.00000000   0.00000000 270.00000000
-78.69640295   2.05664274   0.00000000   0.00000000 270.00000000
-78.59640295   2.05653428   0.00000000   0.00000000 270.00000000
-78.49640295   2.05642512   0.00000000   0.00000000 270.00000000
-78.39640295   2.05631524   0.00000000   0.00000000 270.00000000
-78.29640295   2.05620464   0.00000000   0.00000000 270.00000000
-78.19640295   2.05609332   0.00000000   0.00000000 270.00000000
-78.09640295   2.05598128   0.00000000   0.00000000 270.00000000
-77.99640295   2.05586851   0.00000000   0.00000000 270.00000000
-77.89640295   2.05575500   0.00000000   0.00000000 270.00000000
-77.79640295   2.05564076   0.00000000   0.00000000 270.00000000
-77.69640295   2.05552578   0.00000000   0.00000000 270.00000000
-77.59640295   2.05541005   0.00000000   0.00000000 270.00000000
-77.49640295   2.05529357   0.00000000   0.00000000 270.00000000
-77.39640295   2.05517635   0.00000000   0.00000000 270.00000000
-77.29640295   2.05505836   0.00000000   0.00000000 270.00000000
-77.19640295   2.05493962   0.00000000   0.00000000 270.00000000
-77.09640295   2.05482011   0.00000000   0.00000000 270.00000000
-76.99640295   2.05469984   0.00000000   0.00000000 270.00000000
-76.89640295   2.05457879   0.00000000   0.00000000 270.00000000
-76.79640295   2.05445697   0.00000000   0.00000000 270.00000000
-76.69640295   2.05433437   0.00000000   0.00000000 270.00000000
-76.59640295   2.05421098   0.00000000   0.00000000 270.00000000
-76.49640295   2.05408681   0.00000000   0.00000000 270.00000000
-76.39640295   2.05396185   0.00000000   0.00000000 270.00000000
-76.29640295   2.05383609   0.00000000   0.00000000 270.00000000
-76.19640295   2.05370953   0.00000000   0.00000000 270.00000000
-76.09640295   2.05358216   0.00000000   0.00000000 270.00000000
-75.99640295   2.05345399   0.00000000   0.00000000 270.00000000
-75.89640295   2.05332501   0.00000000   0.00000000 270.00000000
-75.79640295   2.05319522   0.00000000   0.00000000 270.00000000
-75.69640295   2.05306460   0.00000000   0.00000000 270.00000000
-75.59640295   2.05293316   0.00000000   0.00000000 270.00000000
-75.49640295   2.05280089   0.00000000   0.00000000 270.00000000
-75.39640295   2.05266779   0.00000000   0.00000000 270.00000000
-75.29640295   2.05253385   0.00000000   0.00000000 270.00000000
-75.19640295   2.05239908   0.00000000   0.00000000 270.00000000
-75.09640295   2.05226346   0.00000000   0.00000000 270.00000000
-74.99640295   2.05212699   0.00000000   0.00000000 270.00000000
-74.89640295   2.05198966   0.00000000   0.00000000 270.00000000
-74.79640295   2.05185148   0.00000000   0.00000000 270.00000000
-74.69640295   2.05171244   0.00000000   0.00000000 270.00000000
-74.59640295   2.05157254   0.00000000   0.00000000 270.00000000
-74.49640295   2.05143176   0.00000000   0.00000000 270.00000000
-74.39640295   2.05129011   0.00000000   0.00000000 270.00000000
-74.29640295   2.05114759   0.00000000   0.00000000 270.00000000
-74.19640295   2.05100418   0.00000000   0.00000000 270.00000000
-74.09640295   2.05085988   0.00000000   0.00000000 270.00000000
-73.99640295   2.05071470   0.00000000   0.00000000 270.00000000
-73.89640295   2.05056862   0.00000000   0.00000000 270.00000000
-73.79640295   2.05042163   0.00000000   0.00000000 270.00000000
-73.69640295   2.05027375   0.00000000   0.00000000 270.00000000
