#      z (A) rho (1e-6/A2) irho (1e-6/A2) rhoM (1e-6/A2) theta (degrees)
-170.81544455   2.06961591   0.00000000   0.00000000 270.00000000
-170.71544455   2.06960791   0.00000000   0.00000000 270.00000000
-170.61544455   2.06959987   0.00000000   0.00000000 270.00000000
-170.51544455   2.06959178   0.00000000   0.00000000 270.00000000
-170.41544455   2.06958365   0.00000000   0.00000000 270.00000000
-170.31544455   2.06957548   0.00000000   0.00000000 270.00000000
-170.21544455   2.06956727   0.00000000   0.00000000 270.00000000
-170.11544455   2.06955901   0.00000000   0.00000000 270.00000000
-170.01544455   2.06955071   0.00000000   0.00000000 270.00000000
-169.91544455   2.06954236   0.00000000   0.00000000 270.00000000
-169.81544455   2.06953397   0.00000000   0.00000000 270.00000000
-169.71544455   2.06952554   0.00000000   0.00000000 270.00000000
-169.61544455   2.06951706   0.00000000   0.00000000 270.00000000
-169.51544455   2.06950854   0.00000000   0.00000000 270.00000000
-169.41544455   2.06949997   0.00000000   0.00000000 270.00000000
-169.31544455   2.06949136   0.00000000   0.00000000 270.00000000
-169.21544455   2.06948270   0.00000000   0.00000000 270.00000000
-169.11544455   2.06947400   0.00000000   0.00000000 270.00000000
-169.01544455   2.06946525   0.00000000   0.00000000 270.00000000
-168.91544455   2.06945646   0.00000000   0.00000000 270.00000000
-168.81544455   2.06944762   0.00000000   0.00000000 270.00000000
-168.71544455   2.06943874   0.00000000   0.00000000 270.00000000
-168.61544455   2.06942981   0.00000000   0.00000000 270.00000000
-168.51544455   2.06942083   0.00000000   0.00000000 270.00000000
-168.41544455   2.06941180   0.00000000   0.00000000 270.00000000
-168.31544455   2.06940273   0.00000000   0.00000000 270.00000000
-168.21544455   2.06939361   0.00000000   0.00000000 270.00000000
-168.11544455   2.06938444   0.00000000   0.00000000 270.00000000
-168.01544455   2.06937523   0.00000000   0.00000000 270.00000000
-167.91544455   2.06936597   0.00000000   0.00000000 270.00000000
-167.81544455   2.06935666   0.00000000   0.00000000 270.00000000
-167.71544455   2.06934730   0.00000000   0.00000000 270.00000000
-167.61544455   2.06933789   0.00000000   0.00000000 270.00000000
-167.51544455   2.06932844   0.00000000   0.00000000 270.00000000
-167.41544455   2.06931893   0.00000000   0.00000000 270.00000000
-167.31544455   2.06930938   0.00000000   0.00000000 270.00000000
-167.21544455   2.06929977   0.00000000   0.00000000 270.00000000
-167.11544455   2.06929012   0.00000000   0.00000000 270.00000000
-167.01544455   2.06928042   0.00000000   0.00000000 270.00000000
-166.91544455   2.06927066   0.00000000   0.00000000 270.00000000
-166.81544455   2.06926086   0.00000000   0.00000000 270.00000000
-166.71544455   2.06925101   0.00000000   0.00000000 270.00000000
-166.61544455   2.06924110   0.00000000   0.00000000 270.00000000
-166.51544455   2.06923115   0.00000000   0.00000000 270.00000000
-166.41544455   2.06922114   0.00000000   0.00000000 270.00000000
-166.31544455   2.06921108   0.00000000   0.00000000 270.00000000
-166.21544455   2.06920097   0.00000000   0.00000000 270.00000000
-166.11544455   2.06919081   0.00000000   0.00000000 270.00000000
-166.01544455   2.06918059   0.00000000   0.00000000 270.00000000
-165.91544455   2.06917033   0.00000000   0.00000000 270.00000000
-165.81544455   2.06916001   0.00000000   0.00000000 270.00000000
-165.71544455   2.06914963   0.00000000   0.00000000 270.00000000
-165.61544455   2.06913921   0.00000000   0.00000000 270.00000000
-165.51544455   2.06912873   0.00000000   0.00000000 270.00000000
-165.41544455   2.06911820   0.00000000   0.00000000 270.00000000
-165.31544455   2.06910761   0.00000000   0.00000000 270.00000000
-165.21544455   2.06909697   0.00000000   0.00000000 270.00000000
-165.11544455   2.06908627   0.00000000   0.00000000 270.00000000
-165.01544455   2.06907552   0.00000000   0.00000000 270.00000000
-164.91544455   2.06906472   0.00000000   0.00000000 270.00000000
-164.81544455   2.06905386   0.00000000   0.00000000 270.00000000
-164.71544455   2.06904294   0.00000000   0.00000000 270.00000000
-164.61544455   2.06903197   0.00000000   0.00000000 270.00000000
-164.51544455   2.06902095   0.00000000   0.00000000 270.00000000
-164.41544455   2.06900986   0.00000000   0.00000000 270.00000000
-164.31544455   2.06899873   0.00000000   0.00000000 270.00000000
-164.21544455   2.06898753   0.00000000   0.00000000 270.00000000
-164.11544455   2.06897628   0.00000000   0.00000000 270.00000000
-164.01544455   2.06896497   0.00000000   0.00000000 270.00000000
-163.91544455   2.06895360   0.00000000   0.00000000 270.00000000
-163.81544455   2.06894218   0.00000000   0.00000000 270.00000000
-163.71544455   2.06893069   0.00000000   0.00000000 270.00000000
-163.61544455   2.06891915   0.00000000   0.00000000 270.00000000
-163.51544455   2.06890755   0.00000000   0.00000000 270.00000000
-163.41544455   2.06889590   0.00000000   0.00000000 270.00000000
-163.31544455   2.06888418   0.00000000   0.00000000 270.00000000
-163.21544455   2.06887240   0.00000000   0.00000000 270.00000000
-163.11544455   2.06886057   0.00000000   0.00000000 270.00000000
-163.01544455   2.06884867   0.00000000   0.00000000 270.00000000
-162.91544455   2.06883672   0.00000000   0.00000000 270.00000000
-162.81544455   2.06882471   0.00000000   0.00000000 270.00000000
-162.71544455   2.06881263   0.00000000   0.00000000 270.00000000
-162.61544455   2.06880049   0.00000000   0.00000000 270.00000000
-162.51544455   2.06878830   0.00000000   0.00000000 270.00000000
-162.41544455   2.06877604   0.00000000   0.00000000 270.00000000
-162.31544455   2.06876372   0.00000000   0.00000000 270.00000000
-162.21544455   2.06875134   0.00000000   0.00000000 270.00000000
-162.11544455   2.06873889   0.00000000   0.00000000 270.00000000
-162.01544455   2.06872639   0.00000000   0.00000000 270.00000000
-161.91544455   2.06871382   0.00000000   0.00000000 270.00000000
-161.81544455   2.06870118   0.00000000   0.00000000 270.00000000
-161.71544455   2.06868849   0.00000000   0.00000000 270.00000000
-161.61544455   2.06867573   0.00000000   0.00000000 270.00000000
-161.51544455   2.06866291   0.00000000   0.00000000 270.00000000
-161.41544455   2.06865002   0.00000000   0.00000000 270.00000000
-161.31544455   2.06863707   0.00000000   0.00000000 270.00000000
-161.21544455   2.06862405   0.00000000   0.00000000 270.00000000
-161.11544455   2.06861097   0.00000000   0.00000000 270.00000000
-161.01544455   2.06859783   0.00000000   0.00000000 270.00000000
-160.91544455   2.06858462   0.00000000   0.00000000 270.00000000
-160.81544455   2.06857134   0.00000000   0.00000000 270.00000000
-160.71544455   2.06855800   0.00000000   0.00000000 270.00000000
-160.61544455   2.06854459   0.00000000   0.00000000 270.00000000
-160.51544455   2.06853111   0.00000000   0.00000000 270.00000000
-160.41544455   2.06851757   0.00000000   0.00000000 270.00000000
-160.31544455   2.06850396   0.00000000   0.00000000 270.00000000
-160.21544455   2.06849028   0.00000000   0.00000000 270.00000000
-160.11544455   2.06847654   0.00000000   0.00000000 270.00000000
-160.01544455   2.06846273   0.00000000   0.00000000 270.00000000
-159.91544455   2.06844885   0.00000000   0.00000000 270.00000000
-159.81544455   2.06843490   0.00000000   0.00000000 270.00000000
-159.71544455   2.06842088   0.00000000   0.00000000 270.00000000
-159.61544455   2.06840679   0.00000000   0.00000000 270.00000000
-159.51544455   2.06839263   0.00000000   0.00000000 270.00000000
-159.41544455   2.06837840   0.00000000   0.00000000 270.00000000
-159.31544455   2.06836411   0.00000000   0.00000000 270.00000000
-159.21544455   2.06834974   0.00000000   0.00000000 270.00000000
-159.11544455   2.06833530   0.00000000   0.00000000 270.00000000
-159.01544455   2.06832079   0.00000000   0.00000000 270.00000000
-158.91544455   2.06830621   0.00000000   0.00000000 270.00000000
-158.81544455   2.06829156   0.00000000   0.00000000 270.00000000
-158.71544455   2.06827683   0.00000000   0.00000000 270.00000000
-158.61544455   2.06826203   0.00000000   0.00000000 270.00000000
-158.51544455   2.06824716   0.00000000   0.00000000 270.00000000
-158.41544455   2.06823222   0.00000000   0.00000000 270.00000000
-158.31544455   2.06821721   0.00000000   0.00000000 270.00000000
-158.21544455   2.06820212   0.00000000   0.00000000 270.00000000
-158.11544455   2.06818695   0.00000000   0.00000000 270.00000000
-158.01544455   2.06817172   0.00000000   0.00000000 270.00000000
-157.91544455   2.06815641   0.00000000   0.00000000 270.00000000
-157.81544455   2.06814102   0.00000000   0.00000000 270.00000000
-157.71544455   2.06812556   0.00000000   0.00000000 270.00000000
-157.61544455   2.06811002   0.00000000   0.00000000 270.00000000
-157.51544455   2.06809441   0.00000000   0.00000000 270.00000000
-157.41544455   2.06807872   0.00000000   0.00000000 270.00000000
-157.31544455   2.06806296   0.00000000   0.00000000 270.00000000
-157.21544455   2.06804711   0.00000000   0.00000000 270.00000000
-157.11544455   2.06803120   0.00000000   0.00000000 270.00000000
-157.01544455   2.06801520   0.00000000   0.00000000 270.00000000
-156.91544455   2.06799913   0.00000000   0.00000000 270.00000000
-156.81544455   2.06798297   0.00000000   0.00000000 270.00000000
-156.71544455   2.06796674   0.00000000   0.00000000 270.00000000
-156.61544455   2.06795044   0.00000000   0.00000000 270.00000000
-156.51544455   2.06793405   0.00000000   0.00000000 270.00000000
-156.41544455   2.06791758   0.00000000   0.00000000 270.00000000
-156.31544455   2.06790103   0.00000000   0.00000000 270.00000000
-156.21544455   2.06788441   0.00000000   0.00000000 270.00000000
-156.11544455   2.06786770   0.00000000   0.00000000 270.00000000
-156.01544455   2.06785091   0.00000000   0.00000000 270.00000000
-155.91544455   2.06783405   0.00000000   0.00000000 270.00000000
-155.81544455   2.06781710   0.00000000   0.00000000 270.00000000
-155.71544455   2.06780006   0.00000000   0.00000000 270.00000000
-155.61544455   2.06778295   0.00000000   0.00000000 270.00000000
-155.51544455   2.06776576   0.00000000   0.00000000 270.00000000
-155.41544455   2.06774848   0.00000000   0.00000000 270.00000000
-155.31544455   2.06773112   0.00000000   0.00000000 270.00000000
-155.21544455   2.06771367   0.00000000   0.00000000 270.00000000
-155.11544455   2.06769614   0.00000000   0.00000000 270.00000000
-155.01544455   2.06767853   0.00000000   0.00000000 270.00000000
-154.91544455   2.06766083   0.00000000   0.00000000 270.00000000
-154.81544455   2.06764305   0.00000000   0.00000000 270.00000000
-154.71544455   2.06762518   0.00000000   0.00000000 270.00000000
-154.61544455   2.06760723   0.00000000   0.00000000 270.00000000
-154.51544455   2.06758919   0.00000000   0.00000000 270.00000000
-154.41544455   2.06757107   0.00000000   0.00000000 270.00000000
-154.31544455   2.06755286   0.00000000   0.00000000 270.00000000
-154.21544455   2.06753456   0.00000000   0.00000000 270.00000000
-154.11544455   2.06751618   0.00000000   0.00000000 270.00000000
-154.01544455   2.06749770   0.00000000   0.00000000 270.00000000
-153.91544455   2.06747914   0.00000000   0.00000000 270.00000000
-153.81544455   2.06746049   0.00000000   0.00000000 270.00000000
-153.71544455   2.06744176   0.00000000   0.00000000 270.00000000
-153.61544455   2.06742293   0.00000000   0.00000000 270.00000000
-153.51544455   2.06740401   0.00000000   0.00000000 270.00000000
-153.41544455   2.06738501   0.00000000   0.00000000 270.00000000
-153.31544455   2.06736591   0.00000000   0.00000000 270.00000000
-153.21544455   2.06734673   0.00000000   0.00000000 270.00000000
-153.11544455   2.06732745   0.00000000   0.00000000 270.00000000
-153.01544455   2.06730808   0.00000000   0.00000000 270.00000000
-152.91544455   2.06728862   0.00000000   0.00000000 270.00000000
-152.81544455   2.06726907   0.00000000   0.00000000 270.00000000
-152.71544455   2.06724942   0.00000000   0.00000000 270.00000000
-152.61544455   2.06722968   0.00000000   0.00000000 270.00000000
-152.51544455   2.06720985   0.00000000   0.00000000 270.00000000
-152.41544455   2.06718993   0.00000000   0.00000000 270.00000000
-152.31544455   2.06716991   0.00000000   0.00000000 270.00000000
-152.21544455   2.06714980   0.00000000   0.00000000 270.00000000
-152.11544455   2.06712959   0.00000000   0.00000000 270.00000000
-152.01544455   2.06710929   0.00000000   0.00000000 270.00000000
-151.91544455   2.06708889   0.00000000   0.00000000 270.00000000
-151.81544455   2.06706840   0.00000000   0.00000000 270.00000000
-151.71544455   2.06704781   0.00000000   0.00000000 270.00000000
-151.61544455   2.06702713   0.00000000   0.00000000 270.00000000
-151.51544455   2.06700634   0.00000000   0.00000000 270.00000000
-151.41544455   2.06698546   0.00000000   0.00000000 270.00000000
-151.31544455   2.06696448   0.00000000   0.00000000 270.00000000
-151.21544455   2.06694341   0.00000000   0.00000000 270.00000000
-151.11544455   2.06692223   0.00000000   0.00000000 270.00000000
-151.01544455   2.06690096   0.00000000   0.00000000 270.00000000
-150.91544455   2.06687959   0.00000000   0.00000000 270.00000000
-150.81544455   2.06685811   0.00000000   0.00000000 270.00000000
-150.71544455   2.06683654   0.00000000   0.00000000 270.00000000
-150.61544455   2.06681487   0.00000000   0.00000000 270.00000000
-150.51544455   2.06679309   0.00000000   0.00000000 270.00000000
-150.41544455   2.06677122   0.00000000   0.00000000 270.00000000
-150.31544455   2.06674924   0.00000000   0.00000000 270.00000000
-150.21544455   2.06672716   0.00000000   0.00000000 270.00000000
-150.11544455   2.06670498   0.00000000   0.00000000 270.00000000
-150.01544455   2.06668270   0.00000000   0.00000000 270.00000000
-149.91544455   2.06666031   0.00000000   0.00000000 270.00000000
-149.81544455   2.06663782   0.00000000   0.00000000 270.00000000
-149.71544455   2.06661522   0.00000000   0.00000000 270.00000000
-149.61544455   2.06659252   0.00000000   0.00000000 270.00000000
-149.51544455   2.06656971   0.00000000   0.00000000 270.00000000
-149.41544455   2.06654680   0.00000000   0.00000000 270.00000000
-149.31544455   2.06652378   0.00000000   0.00000000 270.00000000
-149.21544455   2.06650066   0.00000000   0.00000000 270.00000000
-149.11544455   2.06647743   0.00000000   0.00000000 270.00000000
-149.01544455   2.06645409   0.00000000   0.00000000 270.00000000
-148.91544455   2.06643065   0.00000000   0.00000000 270.00000000
-148.81544455   2.06640710   0.00000000   0.00000000 270.00000000
-148.71544455   2.06638344   0.00000000   0.00000000 270.00000000
-148.61544455   2.06635967   0.00000000   0.00000000 270.00000000
-148.51544455   2.06633579   0.00000000   0.00000000 270.00000000
-148.41544455   2.06631180   0.00000000   0.00000000 270.00000000
-148.31544455   2.06628770   0.00000000   0.00000000 270.00000000
-148.21544455   2.06626349   0.00000000   0.00000000 270.00000000
-148.11544455   2.06623917   0.00000000   0.00000000 270.00000000
-148.01544455   2.06621474   0.00000000   0.00000000 270.00000000
-147.91544455   2.06619020   0.00000000   0.00000000 270.00000000
-147.81544455   2.06616554   0.00000000   0.00000000 270.00000000
-147.71544455   2.06614077   0.00000000   0.00000000 270.00000000
-147.61544455   2.06611589   0.00000000   0.00000000 270.00000000
-147.51544455   2.06609090   0.00000000   0.00000000 270.00000000
-147.41544455   2.06606579   0.00000000   0.00000000 270.00000000
-147.31544455   2.06604057   0.00000000   0.00000000 270.00000000
-147.21544455   2.06601523   0.00000000   0.00000000 270.00000000
-147.11544455   2.06598977   0.00000000   0.00000000 270.00000000
-147.01544455   2.06596421   0.00000000   0.00000000 270.00000000
-146.91544455   2.06593852   0.00000000   0.00000000 270.00000000
-146.81544455   2.06591272   0.00000000   0.00000000 270.00000000
-146.71544455   2.06588680   0.00000000   0.00000000 270.00000000
-146.61544455   2.06586076   0.00000000   0.00000000 270.00000000
-146.51544455   2.06583461   0.00000000   0.00000000 270.00000000
-146.41544455   2.06580833   0.00000000   0.00000000 270.00000000
-146.31544455   2.06578194   0.00000000   0.00000000 270.00000000
-146.21544455   2.06575543   0.00000000   0.00000000 270.00000000
-146.11544455   2.06572880   0.00000000   0.00000000 270.00000000
-146.01544455   2.06570205   0.00000000   0.00000000 270.00000000
-145.91544455   2.06567518   0.00000000   0.00000000 270.00000000
-145.81544455   2.06564818   0.00000000   0.00000000 270.00000000
-145.71544455   2.06562107   0.00000000   0.00000000 270.00000000
-145.61544455   2.06559383   0.00000000   0.00000000 270.00000000
-145.51544455   2.06556647   0.00000000   0.00000000 270.00000000
-145.41544455   2.06553899   0.00000000   0.00000000 270.00000000
-145.31544455   2.06551138   0.00000000   0.00000000 270.00000000
-145.21544455   2.06548365   0.00000000   0.00000000 270.00000000
-145.11544455   2.06545579   0.00000000   0.00000000 270.00000000
-145.01544455   2.06542781   0.00000000   0.00000000 270.00000000
-144.91544455   2.06539971   0.00000000   0.00000000 270.00000000
-144.81544455   2.06537148   0.00000000   0.00000000 270.00000000
-144.71544455   2.06534312   0.00000000   0.00000000 270.00000000
-144.61544455   2.06531464   0.00000000   0.00000000 270.00000000
-144.51544455   2.06528602   0.00000000   0.00000000 270.00000000
-144.41544455   2.06525728   0.00000000   0.00000000 270.00000000
-144.31544455   2.06522841   0.00000000   0.00000000 270.00000000
-144.21544455   2.06519942   0.00000000   0.00000000 270.00000000
-144.11544455   2.06517029   0.00000000   0.00000000 270.00000000
-144.01544455   2.06514104   0.00000000   0.00000000 270.00000000
-143.91544455   2.06511165   0.00000000   0.00000000 270.00000000
-143.81544455   2.06508213   0.00000000   0.00000000 270.00000000
-143.71544455   2.06505248   0.00000000   0.00000000 270.00000000
-143.61544455   2.06502270   0.00000000   0.00000000 270.00000000
-143.51544455   2.06499279   0.00000000   0.00000000 270.00000000
-143.41544455   2.06496275   0.00000000   0.00000000 270.00000000
-143.31544455   2.06493257   0.00000000   0.00000000 270.00000000
-143.21544455   2.06490226   0.00000000   0.00000000 270.00000000
-143.11544455   2.06487181   0.00000000   0.00000000 270.00000000
-143.01544455   2.06484123   0.00000000   0.00000000 270.00000000
-142.91544455   2.06481052   0.00000000   0.00000000 270.00000000
-142.81544455   2.06477966   0.00000000   0.00000000 270.00000000
-142.71544455   2.06474868   0.00000000   0.00000000 270.00000000
-142.61544455   2.06471755   0.00000000   0.00000000 270.00000000
-142.51544455   2.06468629   0.00000000   0.00000000 270.00000000
-142.41544455   2.06465489   0.00000000   0.00000000 270.00000000
-142.31544455   2.06462335   0.00000000   0.00000000 270.00000000
-142.21544455   2.06459168   0.00000000   0.00000000 270.00000000
-142.11544455   2.06455986   0.00000000   0.00000000 270.00000000
-142.01544455   2.06452791   0.00000000   0.00000000 270.00000000
-141.91544455   2.06449581   0.00000000   0.00000000 270.00000000
-141.81544455   2.06446357   0.00000000   0.00000000 270.00000000
-141.71544455   2.06443120   0.00000000   0.00000000 270.00000000
-141.61544455   2.06439868   0.00000000   0.00000000 270.00000000
-141.51544455   2.06436601   0.00000000   0.00000000 270.00000000
-141.41544455   2.06433321   0.00000000   0.00000000 270.00000000
-141.31544455   2.06430026   0.00000000   0.00000000 270.00000000
-141.21544455   2.06426717   0.00000000   0.00000000 270.00000000
-141.11544455   2.06423393   0.00000000   0.00000000 270.00000000
-141.01544455   2.06420055   0.00000000   0.00000000 270.00000000
-140.91544455   2.06416702   0.00000000   0.00000000 270.00000000
-140.81544455   2.06413335   0.00000000   0.00000000 270.00000000
