# intensity: 1.00570710642519
# background: 3.55879376185951e-08
#           Q (1/A)             dQ (1/A)                    R                   dR               theory              fresnel
      0.010084459364     0.00010301271332        0.99060473148       0.010563542732     1.00374591447882    0.887358900753288
      0.010527572831     0.00010516249785        0.97661193666       0.010441279393    0.995276998051107     0.41342619883215
      0.010957382779      0.0001072922675        0.98807846201       0.010539424411    0.986238205013576     0.22609141411519
      0.011400472385     0.00010953100917        0.96423061548       0.010304250072    0.975856096469342    0.150458335413833
      0.011830312024     0.00011174221746        0.95560004233       0.010292935543    0.963435191848641    0.109577342453856
      0.012277757864     0.00011408277381        0.94663621366       0.010226899042    0.946949894433876   0.0826127127927129
      0.012716371148     0.00011641324928        0.91241736146      0.0099023999243    0.926025936987334   0.0646263780621828
      0.013159412929     0.00011880140158        0.90662362274      0.0099148818247    0.898573373896523   0.0516389348094841
      0.013593700546     0.00012117372412        0.87333413658      0.0096539643153    0.863737485778084   0.0421988766925323
      0.014041082168      0.0001236481371        0.82494481857      0.0092914956277    0.817664700034002   0.0347962347439503
      0.014470975218     0.00012605336378        0.77726404339      0.0088960595594    0.761863838168858   0.0292571255803337
        0.0149139815     0.00012855857508        0.70004077822      0.0083146786816    0.691454231453289   0.0247305535889986
      0.015348249037     0.00013103911185         0.6171389073      0.0076590667876    0.610319722599707   0.0211609092799987
      0.015791263766     0.00013359342958        0.51371586062      0.0067930791659    0.518411248709426   0.0181947140531432
      0.016221121047     0.00013609360472        0.43210146033      0.0060959127578    0.426469080463149   0.0158224356218264
      0.016668542802      0.0001387174039        0.33747504569       0.005248827174    0.336285353973936   0.0137694420179517
      0.017107181564     0.00014130978984        0.25900984995      0.0044799239449    0.261457397523837   0.0120834662729695
      0.017550214409     0.00014394723651        0.20568003341      0.0039319426566    0.204787440998878   0.0106453252937418
      0.017984456025     0.00014654997154         0.1669950762       0.003509855619    0.168682820363644  0.00944551032865113
      0.018427478239     0.00014922236187        0.14938067717       0.003299486706    0.149090191021112  0.00839691782452762
       0.01885736761     0.00015183111866        0.14723470632      0.0032760406905    0.142444461194903  0.00751974199977435
      0.019304756228     0.00015456152523        0.14685990505      0.0032660539884    0.143745074702131  0.00672907419636312
      0.019734613428     0.00015719903462        0.15368559444      0.0033443112594    0.149040409143477  0.00606778559481366
      0.020177706922     0.00015993148633         0.1602731667      0.0034167878142    0.155795312136048  0.00547160884555924
       0.02061186743     0.00016262169732        0.17100579443      0.0035525634992    0.161804824065978  0.00495873511280534
      0.021059259083     0.00016540653623        0.17073016209      0.0035537884473    0.166216190522479  0.00449317562617686
      0.021489170283     0.00016809406952        0.17086757139      0.0035497180809    0.168164826830016  0.00409749472258941
      0.021940947339     0.00021434759213         0.1692637428      0.0026716588365    0.167232521645696  0.00373358476374156
      0.022809438424     0.00022268882966        0.16493713409      0.0025946367965    0.158534837150781  0.00313839563408695
      0.023677926785     0.00023152492749        0.15289596595      0.0024264399802    0.141951356887484  0.00265689659039302
      0.024563957741     0.00023977165934        0.10751506407       0.001771634727    0.119423683444773  0.00225875032650513
      0.025441211656     0.00024841709665       0.088303047982       0.001561088994   0.0946646866930339  0.00193647853636677
      0.026318465085     0.00025727095267       0.068349112281      0.0013286146911   0.0704513001391058  0.00167056958683989
      0.027195712694     0.00026526542577       0.049524514207      0.0011004025389    0.049213063512332  0.00144940972928496
      0.028081730878     0.00027403269465       0.034293302921     0.00089206670517   0.0323425041833275  0.00126244197307182
      0.028958971718     0.00028296429757       0.018804220474     0.00058659298013   0.0206978427316232  0.00110645174411624
      0.029836209028     0.00029111479763       0.013705831285     0.00049383275271   0.0137105411891002 0.000974109943748655
      0.030713445318     0.00030012434974       0.010048379471     0.00041549791918   0.0103971339014109 0.000861195584794695
      0.031590675251     0.00030874335659       0.010111023927     0.00041146399441  0.00952024981166474 0.000764342104193437
      0.032467901335     0.00031689352918       0.010969321906     0.00042429264199  0.00989274054084014 0.000680844455892473
       0.03332758136     0.00032568473559      0.0098383634437     0.00036540716198   0.0105529875119335 0.000609908332625397
      0.034204799507     0.00033404300924       0.010851910149     0.00038047154869   0.0109065872318243 0.000546895651462072
      0.035090787068     0.00034280985761       0.010917955803     0.00037558170666   0.0106181584403065 0.000491354060879021
      0.035967996729     0.00035132425919      0.0098426088646     0.00035303089459  0.00964347038584918 0.000443184063208449
      0.036836431128     0.00035961236078      0.0084111982931     0.00032236632455  0.00813674868007151 0.000401226916737883
      0.037722405411     0.00036840492659      0.0057966679994     0.00024818375104  0.00628843001715498 0.000363454433288477
      0.038599601604     0.00037697116591      0.0038792333272     0.00020073374987  0.00442058261471943 0.000330361585185078
      0.039485566449     0.00038539915318      0.0025842110391     0.00016161373813  0.00273577359994456 0.000300697119191834
      0.040353982388     0.00039431172731      0.0017345313562     0.00013042738943   0.0014453100612336 0.000274805185686207
      0.041239934792     0.00040263527116     0.00064574131373     8.0171699803e-05 0.000572602817218697 0.000251216620489738
      0.042108340889     0.00041131333225     0.00023416108467     4.6696911305e-05 0.000142683856669347 0.000230513959276559
      0.042985515111     0.00042006142086     0.00015610114762     3.8210426241e-05 6.15356006996865e-05 0.000211738525319419
      0.043866209055      0.0004280720557     0.00025480721667     2.1302382721e-05 0.000220276632360298 0.000194778917975611
      0.044735457301     0.00043688417251     0.00051173089549      3.261978336e-05 0.000489380976201352 0.000179682234729272
      0.045612620416     0.00044544968185     0.00078277188085     3.9724786217e-05 0.000763135527018353 0.000165910716667251
      0.046489763366     0.00045380677604     0.00093441709267     4.0937920787e-05 0.000958158035356897 0.000153439448256556
      0.047366915585      0.0004626844313      0.0010145532947     4.2196659438e-05  0.00103193327442074 0.000142124325107891
       0.04824844089     0.00047132363435     0.00096160097525     4.0784638105e-05 0.000979697478126641 0.000131788290425267
       0.04912119229     0.00047960632295     0.00086465326153     3.8348221521e-05 0.000829395038397009 0.000122469685327968
      0.050011468368     0.00048852355243     0.00068963043601     3.4014001444e-05 0.000622018517284761 0.000113800114200508
      0.050879816289     0.00049678399101     0.00036017012694     2.3287691287e-05 0.000419401325248465 0.000106073256531703
      0.051761322925       0.000505422741     0.00024880926448     1.9343909614e-05 0.000260592833638091 9.88923650638233e-05
      0.052638450221     0.00051429985912     0.00019947610649     1.7251630699e-05 0.000182475344739253 9.23422202428591e-05
      0.053515512709     0.00052247371234     0.00022799455419     1.8200968138e-05 0.000198086562653019 8.63279773401787e-05
      0.054392614543      0.0005312981476     0.00034808421059     2.2157159558e-05 0.000301937055934466 8.07973295133776e-05
      0.055269714896     0.00053973220977     0.00052927154891     2.5849477114e-05 0.000472050035023285 7.57041141257703e-05
      0.056146810558      0.0005480620818     0.00068824838884     2.9249240014e-05 0.000675921628320636 7.10073248369312e-05
      0.057019490052     0.00055704650816     0.00089515830071      3.308099682e-05 0.000876348434688214 6.66917525112368e-05
      0.057896529632     0.00056527167281      0.0010591260595     3.5810883106e-05   0.0010423032434152 6.26810311028267e-05
      0.058773635908     0.00057404378496      0.0012324090159     3.8517399444e-05  0.00114785904747373 5.89681203906469e-05
      0.059650704635     0.00058280249683      0.0011456778657     3.5577749008e-05  0.00117977728603854 5.55271461418744e-05
      0.060527730232     0.00059098838396      0.0011764075893     3.5885425852e-05  0.00113742733405637 5.23343186236472e-05
      0.061395988252     0.00059971579702      0.0010522867485     3.3699316235e-05  0.00103255462377338 4.93973349686137e-05
      0.062277413246     0.00060817074088     0.00092151015127     3.1355730135e-05  0.00088093595997209 4.66242707659592e-05
      0.063154441007     0.00061649948696     0.00072590486596     2.7639608255e-05 0.000708148734065498 4.40560016244817e-05
      0.064035837499     0.00062547460148     0.00051347313404     2.2215963887e-05 0.000535989514288975 4.16512214129166e-05
      0.064904074592     0.00063391515377      0.0003680230663     1.8721246415e-05 0.000387456192316672 3.94411888589861e-05
      0.065785465608     0.00064249966754     0.00026310394387      1.577293957e-05 0.000271770288310912 3.73461967787325e-05
      0.066666839476     0.00065113598309     0.00020685113679     1.3954871944e-05 0.000197712505151078 3.53888239729077e-05
      0.067543824032     0.00065933380044     0.00015530768455     1.2103251412e-05 0.000164281508410548 3.35671881637958e-05
      0.068420800357     0.00066805191461     0.00017131597787     1.2209214409e-05  0.00016389808101088 3.18617323252169e-05
      0.069297773573     0.00067697826677     0.00017203442999     1.2184781878e-05 0.000185425046986343 3.02635916921614e-05
      0.070176918396     0.00068524504903     0.00022387809706     9.7761542625e-06 0.000216308419777055 2.87610450493363e-05
      0.071047306796      0.0006939492943      0.0002544271925     1.4553728034e-05 0.000244397476028991 2.73645297947054e-05
      0.071924246884     0.00070217226995     0.00027433460766     1.5045278639e-05  0.00026114022444098 2.60424890567684e-05
      0.072801166802     0.00071088955868      0.0002729852195     1.4499541991e-05 0.000260985994346544 2.47997154410575e-05
      0.073682480629     0.00071968075089     0.00025785787722     1.3842257576e-05 0.000242701027605566 2.36246514139918e-05
      0.074555022652     0.00072793339475       0.000240579486     1.3446967183e-05 0.000209256393847072 2.25292503609802e-05
      0.075431933784     0.00073649408099     0.00016637946129     1.1184237397e-05  0.00016555578175791 2.14918530479364e-05
      0.076313209758     0.00074559714996     9.5300275892e-05     8.5189387573e-06 0.000118200501171718 2.05089730927937e-05
        0.0771944892     0.00075363283361      6.867740908e-05     7.0072603399e-06 7.41461587273325e-05 1.95817406871081e-05
      0.078071374206     0.00076245321781     3.6632016619e-05     5.2821378659e-06 3.90699970227539e-05 1.87107672194206e-05
       0.07894384588     0.00077106919245     2.3021967803e-05      4.343532116e-06 1.62087851348458e-05 1.78918895088936e-05
      0.079820710718     0.00077921262551     1.3468133092e-05     3.5184201106e-06 6.30906201750214e-06  1.7113679484833e-05
      0.080697560604     0.00078808443737     2.2245499774e-05     4.1865563184e-06  8.2388739551849e-06 1.63775086969811e-05
      0.081574400657     0.00079656569431     2.4208369277e-05     4.1302985426e-06 1.89261461376859e-05 1.56806314912791e-05
      0.082451230771     0.00080512491044     5.7235652434e-05     5.9878376595e-06 3.43135513065021e-05 1.50205736893371e-05
      0.083328050838     0.00081384006398     5.9788481589e-05     6.0819531944e-06 5.01876926602148e-05  1.4395025140235e-05
      0.084204860752     0.00082211262019     7.2997741246e-05     6.6546305754e-06 6.29691205044962e-05 1.38018219670667e-05
      0.085081665632     0.00083087938932     8.8135155096e-05     7.2383178454e-06 7.02782122578404e-05 1.32389993737141e-05
      0.085962849115     0.00083961600471     7.9706106921e-05      6.692427931e-06 7.12320183637797e-05  1.2702076726322e-05
      0.086835233731     0.00084796999644     6.5938970325e-05     6.1083868837e-06 6.64693670669755e-05 1.21971568964222e-05
      0.087707600961     0.00085671411608     6.6912274878e-05     6.1183561122e-06 5.78115274223962e-05 1.17172149112245e-05
      0.088584357408     0.00086498563599       5.82564353e-05     5.6998776564e-06 4.77151592657669e-05 1.12585035513595e-05
      0.089465517328     0.00087356536711     4.3920977921e-05       4.95861459e-06 3.88902286907765e-05 1.08199800993467e-05
      0.090346631345     0.00088227476591     3.2107728506e-05     4.1321866589e-06 3.37660232077758e-05  1.0402709870751e-05
      0.091218940428     0.00089040625657     4.2824634317e-05     4.6790617978e-06 3.38815914279668e-05 1.00093124387674e-05
       0.09209567241     0.00089931476719     3.1711823817e-05     4.0532474086e-06 3.97173168447592e-05 9.63258861957017e-06
      0.092972396898     0.00090800175337     5.1277720685e-05     5.0481406366e-06 5.07091718193444e-05 9.27350312252251e-06
      0.093849058561     0.00091621986952      6.822820106e-05     5.7696284361e-06 6.53605486224963e-05 8.93108938812304e-06
      0.094725777149     0.00092514061593     7.6016815825e-05     5.8925209099e-06 8.15587278000659e-05 8.60440584445932e-06
      0.095602404582     0.00093367040114     9.4681391096e-05     6.5362033678e-06 9.69489223897724e-05 8.29262547652634e-06
      0.096479093013     0.00094191421309     0.00010273653453     6.7870304795e-06  0.00010935380316399 7.99488719503049e-06
      0.097355717108     0.00095083400682     9.6630388757e-05     6.5469493489e-06 0.000117086523022592 7.71051740569837e-06
      0.098236738141     0.00095915115015     0.00011467310537      7.092056533e-06 0.000119243322747062  7.4373837553233e-06
      0.099108987995     0.00096758036921     0.00010228948945     6.5341357087e-06 0.000115732740203553 7.17884986460416e-06
      0.099985596882     0.00097621335137      0.0001068847254     6.6603304514e-06 0.000107242162230032 6.93031217673559e-06
       0.10086219359     0.00098463800973     9.0812081726e-05     6.1141821749e-06 9.50947298642214e-05 6.69250209463133e-06
       0.10173439628     0.00099337860324     8.1197717047e-05     5.7703577502e-06 8.10418095070423e-05 6.46598850554372e-06
       0.10261535002      0.0010020327787     7.1882384762e-05     5.4229221945e-06 6.66243642678878e-05 6.24690588358129e-06
       0.10348315299      0.0010102827638     5.2587759463e-05     4.5435544323e-06 5.37419658660482e-05 6.04014755694466e-06
       0.10436846689      0.0010193226877     4.1957588996e-05     4.0651454688e-06 4.31243414528552e-05 5.83802209803777e-06
       0.10524500108      0.0010275119373     3.6314975108e-05     3.8042514245e-06  3.5748907777554e-05 5.64620840184518e-06
       0.10612152244       0.001036299283     3.4990761788e-05     3.7175893598e-06 3.15700445584308e-05 5.46227104345105e-06
       0.10699803087      0.0010447742712     2.3933068182e-05     3.1048200193e-06 3.01558093016143e-05 5.28581603428515e-06
       0.10787452627      0.0010529628425     3.2292791476e-05     3.5372064965e-06 3.07180373556658e-05 5.11648159550233e-06
       0.10875100852      0.0010618014204     2.8121155687e-05     3.3027541566e-06 3.22841454010007e-05  4.9539323918768e-06
       0.10961871143      0.0010705438508     2.9163576217e-05     3.1984370331e-06 3.38646584423019e-05 4.79937052828227e-06
       0.11049516721      0.0010786796366     2.5854765273e-05     3.0244135614e-06 3.46841389410343e-05 4.64936632244546e-06
       0.11137597868      0.0010876174547     2.8445279344e-05     3.1475299675e-06 3.41726834528231e-05 4.50452843131733e-06
       0.11225241396      0.0010959608065     2.5789509905e-05     3.0016777236e-06  3.2119472918654e-05 4.36600645805838e-06
         0.113124448      0.0011044900833     2.1783675264e-05     2.7784729619e-06 2.86462930464555e-05  4.2334718175461e-06
       0.11400522721      0.0011132970159     1.9146190679e-05     2.6224934679e-06 2.40525982614928e-05 4.10472314787378e-06
       0.11488161785      0.0011217956454     1.2161666379e-05     2.1558287629e-06 1.89230933366223e-05 3.98147803816443e-06
       0.11575800773      0.0011301640627     1.4800696029e-05     2.3212021887e-06 1.38095305685701e-05 3.86286545622772e-06
       0.11663435743      0.0011386881622     7.6021423197e-06     1.7785451192e-06 9.23005519191997e-06 3.74868681375721e-06
       0.11751070221      0.0011470559409     2.9399182889e-06     1.3142018246e-06  5.5646895872662e-06 3.63873753325196e-06
       0.11838702796      0.0011560475719     3.7497061212e-06     1.4057375658e-06 3.01054177344881e-06 3.53283675540687e-06
       0.11926335713      0.0011642848857     1.7134351399e-06     1.1096978514e-06 1.56778958574478e-06 3.43079667161204e-06
       0.12014404353      0.0011729858762    -3.4259103256e-08     8.8696714753e-07 1.07403837795856e-06 3.33197705885586e-06
       0.12102033055      0.0011818335353     7.1896472254e-07     1.0215017443e-06 1.25681001387996e-06 3.23720379048169e-06
       0.12190097462      0.0011900528909     3.3360923461e-06     1.3481561307e-06   1.790002784012e-06 3.14535759327212e-06
       0.12277286025      0.0011987091156      2.695664827e-06     1.3106664021e-06 2.36724952911306e-06 3.05765141667433e-06
       0.12364910271      0.0012074651326     3.1187254826e-06     1.3305308508e-06  2.7751975225217e-06 2.97260296135748e-06
        0.1245253301      0.0012154406501     5.7168960522e-06     1.5590662391e-06 2.90021688095931e-06 2.89052543183047e-06
       0.12540154233      0.0012244299843     2.4316228924e-06     1.2370279333e-06 2.75005009422958e-06  2.8113026438942e-06
       0.12627774972      0.0012330289389     2.3260442178e-06     1.2191838033e-06 2.43800871104475e-06 2.73480948446376e-06
       0.12715393127      0.0012411597522     5.3941584519e-06     1.5144930618e-06 2.14605055216572e-06 2.66093501203024e-06
       0.12803009734      0.0012499400347     4.1697546951e-06       1.33499273e-06 2.08106094422821e-06 2.58957608262725e-06
        0.1289062478      0.0012584081434     6.4811185529e-06     1.5374388469e-06 2.42681881291814e-06 2.52062661299453e-06
       0.12978238256      0.0012670578817     6.3554820116e-06     1.5390224581e-06 3.30584146017847e-06 2.45399161967842e-06
        0.1306585015      0.0012757334285     9.3026584575e-06     1.7642049112e-06 4.75300755451557e-06 2.38957766921441e-06
       0.13153020086      0.0012839966122     9.8516214807e-06     1.8130310876e-06 6.69729947744336e-06 2.32760340916939e-06
       0.13240630373      0.0012927494736      1.377023955e-05     2.0380219867e-06 9.01538382134537e-06 2.26736015551991e-06
       0.13328677072      0.0013011341356      1.415720526e-05     2.0423164012e-06 1.15070083191691e-05 2.20879809615164e-06
       0.13416719928      0.0013095963118     1.7250266337e-05     2.2000325559e-06 1.39296344480236e-05 2.15214732841203e-06
       0.13503885527      0.0013184302045     2.1510943897e-05     2.4037523493e-06 1.60446955340338e-05 2.09787010601342e-06
