#      z (A) rho (1e-6/A2) irho (1e-6/A2) rhoM (1e-6/A2) theta (degrees)
-107.64330498   2.07098398   0.00000000   0.00000000 270.00000000
-107.54330498   2.07098383   0.00000000   0.00000000 270.00000000
-107.44330498   2.07098368   0.00000000   0.00000000 270.00000000
-107.34330498   2.07098353   0.00000000   0.00000000 270.00000000
-107.24330498   2.07098338   0.00000000   0.00000000 270.00000000
-107.14330498   2.07098323   0.00000000   0.00000000 270.00000000
-107.04330498   2.07098308   0.00000000   0.00000000 270.00000000
-106.94330498   2.07098292   0.00000000   0.00000000 270.00000000
-106.84330498   2.07098277   0.00000000   0.00000000 270.00000000
-106.74330498   2.07098261   0.00000000   0.00000000 270.00000000
-106.64330498   2.07098245   0.00000000   0.00000000 270.00000000
-106.54330498   2.07098229   0.00000000   0.00000000 270.00000000
-106.44330498   2.07098213   0.00000000   0.00000000 270.00000000
-106.34330498   2.07098197   0.00000000   0.00000000 270.00000000
-106.24330498   2.07098180   0.00000000   0.00000000 270.00000000
-106.14330498   2.07098164   0.00000000   0.00000000 270.00000000
-106.04330498   2.07098147   0.00000000   0.00000000 270.00000000
-105.94330498   2.07098130   0.00000000   0.00000000 270.00000000
-105.84330498   2.07098113   0.00000000   0.00000000 270.00000000
-105.74330498   2.07098096   0.00000000   0.00000000 270.00000000
-105.64330498   2.07098079   0.00000000   0.00000000 270.00000000
-105.54330498   2.07098062   0.00000000   0.00000000 270.00000000
-105.44330498   2.07098044   0.00000000   0.00000000 270.00000000
-105.34330498   2.07098026   0.00000000   0.00000000 270.00000000
-105.24330498   2.07098009   0.00000000   0.00000000 270.00000000
-105.14330498   2.07097991   0.00000000   0.00000000 270.00000000
-105.04330498   2.07097973   0.00000000   0.00000000 270.00000000
-104.94330498   2.07097954   0.00000000   0.00000000 270.00000000
-104.84330498   2.07097936   0.00000000   0.00000000 270.00000000
-104.74330498   2.07097917   0.00000000   0.00000000 270.00000000
-104.64330498   2.07097899   0.00000000   0.00000000 270.00000000
-104.54330498   2.07097880   0.00000000   0.00000000 270.00000000
-104.44330498   2.07097861   0.00000000   0.00000000 270.00000000
-104.34330498   2.07097842   0.00000000   0.00000000 270.00000000
-104.24330498   2.07097822   0.00000000   0.00000000 270.00000000
-104.14330498   2.07097803   0.00000000   0.00000000 270.00000000
-104.04330498   2.07097783   0.00000000   0.00000000 270.00000000
-103.94330498   2.07097763   0.00000000   0.00000000 270.00000000
-103.84330498   2.07097744   0.00000000   0.00000000 270.00000000
-103.74330498   2.07097723   0.00000000   0.00000000 270.00000000
-103.64330498   2.07097703   0.00000000   0.00000000 270.00000000
-103.54330498   2.07097683   0.00000000   0.00000000 270.00000000
-103.44330498   2.07097662   0.00000000   0.00000000 270.00000000
-103.34330498   2.07097641   0.00000000   0.00000000 270.00000000
-103.24330498   2.07097620   0.00000000   0.00000000 270.00000000
-103.14330498   2.07097599   0.00000000   0.00000000 270.00000000
-103.04330498   2.07097578   0.00000000   0.00000000 270.00000000
-102.94330498   2.07097557   0.00000000   0.00000000 270.00000000
-102.84330498   2.07097535   0.00000000   0.00000000 270.00000000
-102.74330498   2.07097513   0.00000000   0.00000000 270.00000000
-102.64330498   2.07097491   0.00000000   0.00000000 270.00000000
-102.54330498   2.07097469   0.00000000   0.00000000 270.00000000
-102.44330498   2.07097447   0.00000000   0.00000000 270.00000000
-102.34330498   2.07097424   0.00000000   0.00000000 270.00000000
-102.24330498   2.07097402   0.00000000   0.00000000 270.00000000
-102.14330498   2.07097379   0.00000000   0.00000000 270.00000000
-102.04330498   2.07097356   0.00000000   0.00000000 270.00000000
-101.94330498   2.07097332   0.00000000   0.00000000 270.00000000
-101.84330498   2.07097309   0.00000000   0.00000000 270.00000000
-101.74330498   2.07097285   0.00000000   0.00000000 270.00000000
-101.64330498   2.07097262   0.00000000   0.00000000 270.00000000
-101.54330498   2.07097238   0.00000000   0.00000000 270.00000000
-101.44330498   2.07097214   0.00000000   0.00000000 270.00000000
-101.34330498   2.07097189   0.00000000   0.00000000 270.00000000
-101.24330498   2.07097165   0.00000000   0.00000000 270.00000000
-101.14330498   2.07097140   0.00000000   0.00000000 270.00000000
-101.04330498   2.07097115   0.00000000   0.00000000 270.00000000
-100.94330498   2.07097090   0.00000000   0.00000000 270.00000000
-100.84330498   2.07097065   0.00000000   0.00000000 270.00000000
-100.74330498   2.07097039   0.00000000   0.00000000 270.00000000
-100.64330498   2.07097013   0.00000000   0.00000000 270.00000000
-100.54330498   2.07096987   0.00000000   0.00000000 270.00000000
-100.44330498   2.07096961   0.00000000   0.00000000 270.00000000
-100.34330498   2.07096935   0.00000000   0.00000000 270.00000000
-100.24330498   2.07096908   0.00000000   0.00000000 270.00000000
-100.14330498   2.07096882   0.00000000   0.00000000 270.00000000
-100.04330498   2.07096855   0.00000000   0.00000000 270.00000000
-99.94330498   2.07096828   0.00000000   0.00000000 270.00000000
-99.84330498   2.07096800   0.00000000   0.00000000 270.00000000
-99.74330498   2.07096773   0.00000000   0.00000000 270.00000000
-99.64330498   2.07096745   0.00000000   0.00000000 270.00000000
-99.54330498   2.07096717   0.00000000   0.00000000 270.00000000
-99.44330498   2.07096688   0.00000000   0.00000000 270.00000000
-99.34330498   2.07096660   0.00000000   0.00000000 270.00000000
-99.24330498   2.07096631   0.00000000   0.00000000 270.00000000
-99.14330498   2.07096602   0.00000000   0.00000000 270.00000000
-99.04330498   2.07096573   0.00000000   0.00000000 270.00000000
-98.94330498   2.07096544   0.00000000   0.00000000 270.00000000
-98.84330498   2.07096514   0.00000000   0.00000000 270.00000000
-98.74330498   2.07096485   0.00000000   0.00000000 270.00000000
-98.64330498   2.07096455   0.00000000   0.00000000 270.00000000
-98.54330498   2.07096424   0.00000000   0.00000000 270.00000000
-98.44330498   2.07096394   0.00000000   0.00000000 270.00000000
-98.34330498   2.07096363   0.00000000   0.00000000 270.00000000
-98.24330498   2.07096332   0.00000000   0.00000000 270.00000000
-98.14330498   2.07096301   0.00000000   0.00000000 270.00000000
-98.04330498   2.07096269   0.00000000   0.00000000 270.00000000
-97.94330498   2.07096238   0.00000000   0.00000000 270.00000000
-97.84330498   2.07096206   0.00000000   0.00000000 270.00000000
-97.74330498   2.07096174   0.00000000   0.00000000 270.00000000
-97.64330498   2.07096141   0.00000000   0.00000000 270.00000000
-97.54330498   2.07096109   0.00000000   0.00000000 270.00000000
-97.44330498   2.07096076   0.00000000   0.00000000 270.00000000
-97.34330498   2.07096043   0.00000000   0.00000000 270.00000000
-97.24330498   2.07096009   0.00000000   0.00000000 270.00000000
-97.14330498   2.07095975   0.00000000   0.00000000 270.00000000
-97.04330498   2.07095942   0.00000000   0.00000000 270.00000000
-96.94330498   2.07095907   0.00000000   0.00000000 270.00000000
-96.84330498   2.07095873   0.00000000   0.00000000 270.00000000
-96.74330498   2.07095838   0.00000000   0.00000000 270.00000000
-96.64330498   2.07095803   0.00000000   0.00000000 270.00000000
-96.54330498   2.07095768   0.00000000   0.00000000 270.00000000
-96.44330498   2.07095733   0.00000000   0.00000000 270.00000000
-96.34330498   2.07095697   0.00000000   0.00000000 270.00000000
-96.24330498   2.07095661   0.00000000   0.00000000 270.00000000
-96.14330498   2.07095625   0.00000000   0.00000000 270.00000000
-96.04330498   2.07095588   0.00000000   0.00000000 270.00000000
-95.94330498   2.07095551   0.00000000   0.00000000 270.00000000
-95.84330498   2.07095514   0.00000000   0.00000000 270.00000000
-95.74330498   2.07095477   0.00000000   0.00000000 270.00000000
-95.64330498   2.07095439   0.00000000   0.00000000 270.00000000
-95.54330498   2.07095401   0.00000000   0.00000000 270.00000000
-95.44330498   2.07095363   0.00000000   0.00000000 270.00000000
-95.34330498   2.07095324   0.00000000   0.00000000 270.00000000
-95.24330498   2.07095286   0.00000000   0.00000000 270.00000000
-95.14330498   2.07095246   0.00000000   0.00000000 270.00000000
-95.04330498   2.07095207   0.00000000   0.00000000 270.00000000
-94.94330498   2.07095167   0.00000000   0.00000000 270.00000000
-94.84330498   2.07095127   0.00000000   0.00000000 270.00000000
-94.74330498   2.07095087   0.00000000   0.00000000 270.00000000
-94.64330498   2.07095047   0.00000000   0.00000000 270.00000000
-94.54330498   2.07095006   0.00000000   0.00000000 270.00000000
-94.44330498   2.07094965   0.00000000   0.00000000 270.00000000
-94.34330498   2.07094923   0.00000000   0.00000000 270.00000000
-94.24330498   2.07094881   0.00000000   0.00000000 270.00000000
-94.14330498   2.07094839   0.00000000   0.00000000 270.00000000
-94.04330498   2.07094797   0.00000000   0.00000000 270.00000000
-93.94330498   2.07094754   0.00000000   0.00000000 270.00000000
-93.84330498   2.07094711   0.00000000   0.00000000 270.00000000
-93.74330498   2.07094668   0.00000000   0.00000000 270.00000000
-93.64330498   2.07094624   0.00000000   0.00000000 270.00000000
-93.54330498   2.07094580   0.00000000   0.00000000 270.00000000
-93.44330498   2.07094536   0.00000000   0.00000000 270.00000000
-93.34330498   2.07094491   0.00000000   0.00000000 270.00000000
-93.24330498   2.07094447   0.00000000   0.00000000 270.00000000
-93.14330498   2.07094401   0.00000000   0.00000000 270.00000000
-93.04330498   2.07094356   0.00000000   0.00000000 270.00000000
-92.94330498   2.07094310   0.00000000   0.00000000 270.00000000
-92.84330498   2.07094264   0.00000000   0.00000000 270.00000000
-92.74330498   2.07094217   0.00000000   0.00000000 270.00000000
-92.64330498   2.07094170   0.00000000   0.00000000 270.00000000
-92.54330498   2.07094123   0.00000000   0.00000000 270.00000000
-92.44330498   2.07094075   0.00000000   0.00000000 270.00000000
-92.34330498   2.07094027   0.00000000   0.00000000 270.00000000
-92.24330498   2.07093979   0.00000000   0.00000000 270.00000000
-92.14330498   2.07093930   0.00000000   0.00000000 270.00000000
-92.04330498   2.07093881   0.00000000   0.00000000 270.00000000
-91.94330498   2.07093832   0.00000000   0.00000000 270.00000000
-91.84330498   2.07093782   0.00000000   0.00000000 270.00000000
-91.74330498   2.07093732   0.00000000   0.00000000 270.00000000
-91.64330498   2.07093682   0.00000000   0.00000000 270.00000000
-91.54330498   2.07093631   0.00000000   0.00000000 270.00000000
-91.44330498   2.07093580   0.00000000   0.00000000 270.00000000
-91.34330498   2.07093529   0.00000000   0.00000000 270.00000000
-91.24330498   2.07093477   0.00000000   0.00000000 270.00000000
-91.14330498   2.07093425   0.00000000   0.00000000 270.00000000
-91.04330498   2.07093372   0.00000000   0.00000000 270.00000000
-90.94330498   2.07093319   0.00000000   0.00000000 270.00000000
-90.84330498   2.07093266   0.00000000   0.00000000 270.00000000
-90.74330498   2.07093212   0.00000000   0.00000000 270.00000000
-90.64330498   2.07093158   0.00000000   0.00000000 270.00000000
-90.54330498   2.07093103   0.00000000   0.00000000 270.00000000
-90.44330498   2.07093049   0.00000000   0.00000000 270.00000000
-90.34330498   2.07092993   0.00000000   0.00000000 270.00000000
-90.24330498   2.07092938   0.00000000   0.00000000 270.00000000
-90.14330498   2.07092882   0.00000000   0.00000000 270.00000000
-90.04330498   2.07092825   0.00000000   0.00000000 270.00000000
-89.94330498   2.07092768   0.00000000   0.00000000 270.00000000
-89.84330498   2.07092711   0.00000000   0.00000000 270.00000000
-89.74330498   2.07092654   0.00000000   0.00000000 270.00000000
-89.64330498   2.07092596   0.00000000   0.00000000 270.00000000
-89.54330498   2.07092537   0.00000000   0.00000000 270.00000000
-89.44330498   2.07092478   0.00000000   0.00000000 270.00000000
-89.34330498   2.07092419   0.00000000   0.00000000 270.00000000
-89.24330498   2.07092359   0.00000000   0.00000000 270.00000000
-89.14330498   2.07092299   0.00000000   0.00000000 270.00000000
-89.04330498   2.07092239   0.00000000   0.00000000 270.00000000
-88.94330498   2.07092178   0.00000000   0.00000000 270.00000000
-88.84330498   2.07092117   0.00000000   0.00000000 270.00000000
-88.74330498   2.07092055   0.00000000   0.00000000 270.00000000
-88.64330498   2.07091993   0.00000000   0.00000000 270.00000000
-88.54330498   2.07091930   0.00000000   0.00000000 270.00000000
-88.44330498   2.07091867   0.00000000   0.00000000 270.00000000
-88.34330498   2.07091804   0.00000000   0.00000000 270.00000000
-88.24330498   2.07091740   0.00000000   0.00000000 270.00000000
-88.14330498   2.07091675   0.00000000   0.00000000 270.00000000
-88.04330498   2.07091611   0.00000000   0.00000000 270.00000000
-87.94330498   2.07091545   0.00000000   0.00000000 270.00000000
-87.84330498   2.07091480   0.00000000   0.00000000 270.00000000
-87.74330498   2.07091414   0.00000000   0.00000000 270.00000000
-87.64330498   2.07091347   0.00000000   0.00000000 270.00000000
-87.54330498   2.07091280   0.00000000   0.00000000 270.00000000
-87.44330498   2.07091212   0.00000000   0.00000000 270.00000000
-87.34330498   2.07091144   0.00000000   0.00000000 270.00000000
-87.24330498   2.07091076   0.00000000   0.00000000 270.00000000
-87.14330498   2.07091007   0.00000000   0.00000000 270.00000000
-87.04330498   2.07090938   0.00000000   0.00000000 270.00000000
-86.94330498   2.07090868   0.00000000   0.00000000 270.00000000
-86.84330498   2.07090798   0.00000000   0.00000000 270.00000000
-86.74330498   2.07090727   0.00000000   0.00000000 270.00000000
-86.64330498   2.07090656   0.00000000   0.00000000 270.00000000
-86.54330498   2.07090584   0.00000000   0.00000000 270.00000000
-86.44330498   2.07090512   0.00000000   0.00000000 270.00000000
-86.34330498   2.07090439   0.00000000   0.00000000 270.00000000
-86.24330498   2.07090366   0.00000000   0.00000000 270.00000000
-86.14330498   2.07090292   0.00000000   0.00000000 270.00000000
-86.04330498   2.07090218   0.00000000   0.00000000 270.00000000
-85.94330498   2.07090143   0.00000000   0.00000000 270.00000000
-85.84330498   2.07090068   0.00000000   0.00000000 270.00000000
-85.74330498   2.07089992   0.00000000   0.00000000 270.00000000
-85.64330498   2.07089916   0.00000000   0.00000000 270.00000000
-85.54330498   2.07089839   0.00000000   0.00000000 270.00000000
-85.44330498   2.07089762   0.00000000   0.00000000 270.00000000
-85.34330498   2.07089685   0.00000000   0.00000000 270.00000000
-85.24330498   2.07089606   0.00000000   0.00000000 270.00000000
-85.14330498   2.07089528   0.00000000   0.00000000 270.00000000
-85.04330498   2.07089448   0.00000000   0.00000000 270.00000000
-84.94330498   2.07089368   0.00000000   0.00000000 270.00000000
-84.84330498   2.07089288   0.00000000   0.00000000 270.00000000
-84.74330498   2.07089207   0.00000000   0.00000000 270.00000000
-84.64330498   2.07089126   0.00000000   0.00000000 270.00000000
-84.54330498   2.07089044   0.00000000   0.00000000 270.00000000
-84.44330498   2.07088961   0.00000000   0.00000000 270.00000000
-84.34330498   2.07088878   0.00000000   0.00000000 270.00000000
-84.24330498   2.07088795   0.00000000   0.00000000 270.00000000
-84.14330498   2.07088711   0.00000000   0.00000000 270.00000000
-84.04330498   2.07088626   0.00000000   0.00000000 270.00000000
-83.94330498   2.07088541   0.00000000   0.00000000 270.00000000
-83.84330498   2.07088455   0.00000000   0.00000000 270.00000000
-83.74330498   2.07088369   0.00000000   0.00000000 270.00000000
-83.64330498   2.07088282   0.00000000   0.00000000 270.00000000
-83.54330498   2.07088194   0.00000000   0.00000000 270.00000000
-83.44330498   2.07088106   0.00000000   0.00000000 270.00000000
-83.34330498   2.07088018   0.00000000   0.00000000 270.00000000
-83.24330498   2.07087929   0.00000000   0.00000000 270.00000000
-83.14330498   2.07087839   0.00000000   0.00000000 270.00000000
-83.04330498   2.07087748   0.00000000   0.00000000 270.00000000
-82.94330498   2.07087658   0.00000000   0.00000000 270.00000000
-82.84330498   2.07087566   0.00000000   0.00000000 270.00000000
-82.74330498   2.07087474   0.00000000   0.00000000 270.00000000
-82.64330498   2.07087381   0.00000000   0.00000000 270.00000000
-82.54330498   2.07087288   0.00000000   0.00000000 270.00000000
-82.44330498   2.07087194   0.00000000   0.00000000 270.00000000
-82.34330498   2.07087100   0.00000000   0.00000000 270.00000000
-82.24330498   2.07087004   0.00000000   0.00000000 270.00000000
-82.14330498   2.07086909   0.00000000   0.00000000 270.00000000
-82.04330498   2.07086812   0.00000000   0.00000000 270.00000000
-81.94330498   2.07086715   0.00000000   0.00000000 270.00000000
-81.84330498   2.07086618   0.00000000   0.00000000 270.00000000
-81.74330498   2.07086520   0.00000000   0.00000000 270.00000000
-81.64330498   2.07086421   0.00000000   0.00000000 270.00000000
-81.54330498   2.07086321   0.00000000   0.00000000 270.00000000
-81.44330498   2.07086221   0.00000000   0.00000000 270.00000000
-81.34330498   2.07086121   0.00000000   0.00000000 270.00000000
-81.24330498   2.07086019   0.00000000   0.00000000 270.00000000
-81.14330498   2.07085917   0.00000000   0.00000000 270.00000000
-81.04330498   2.07085815   0.00000000   0.00000000 270.00000000
-80.94330498   2.07085711   0.00000000   0.00000000 270.00000000
-80.84330498   2.07085607   0.00000000   0.00000000 270.00000000
-80.74330498   2.07085503   0.00000000   0.00000000 270.00000000
-80.64330498   2.07085398   0.00000000   0.00000000 270.00000000
-80.54330498   2.07085292   0.00000000   0.00000000 270.00000000
-80.44330498   2.07085185   0.00000000   0.00000000 270.00000000
-80.34330498   2.07085078   0.00000000   0.00000000 270.00000000
-80.24330498   2.07084970   0.00000000   0.00000000 270.00000000
-80.14330498   2.07084861   0.00000000   0.00000000 270.00000000
-80.04330498   2.07084752   0.00000000   0.00000000 270.00000000
-79.94330498   2.07084642   0.00000000   0.00000000 270.00000000
-79.84330498   2.07084532   0.00000000   0.00000000 270.00000000
-79.74330498   2.07084420   0.00000000   0.00000000 270.00000000
-79.64330498   2.07084308   0.00000000   0.00000000 270.00000000
-79.54330498   2.07084196   0.00000000   0.00000000 270.00000000
-79.44330498   2.07084082   0.00000000   0.00000000 270.00000000
-79.34330498   2.07083968   0.00000000   0.00000000 270.00000000
-79.24330498   2.07083853   0.00000000   0.00000000 270.00000000
-79.14330498   2.07083738   0.00000000   0.00000000 270.00000000
-79.04330498   2.07083622   0.00000000   0.00000000 270.00000000
-78.94330498   2.07083505   0.00000000   0.00000000 270.00000000
-78.84330498   2.07083387   0.00000000   0.00000000 270.00000000
-78.74330498   2.07083269   0.00000000   0.00000000 270.00000000
-78.64330498   2.07083149   0.00000000   0.00000000 270.00000000
-78.54330498   2.07083030   0.00000000   0.00000000 270.00000000
-78.44330498   2.07082909   0.00000000   0.00000000 270.00000000
-78.34330498   2.07082788   0.00000000   0.00000000 270.00000000
-78.24330498   2.07082666   0.00000000   0.00000000 270.00000000
-78.14330498   2.07082543   0.00000000   0.00000000 270.00000000
-78.04330498   2.07082419   0.00000000   0.00000000 270.00000000
-77.94330498   2.07082295   0.00000000   0.00000000 270.00000000
-77.84330498   2.07082170   0.00000000   0.00000000 270.00000000
-77.74330498   2.07082044   0.00000000   0.00000000 270.00000000
-77.64330498   2.07081918   0.00000000   0.00000000 270.00000000
-77.54330498   2.07081790   0.00000000   0.00000000 270.00000000
-77.44330498   2.07081662   0.00000000   0.00000000 270.00000000
-77.34330498   2.07081533   0.00000000   0.00000000 270.00000000
-77.24330498   2.07081404   0.00000000   0.00000000 270.00000000
