# intensity: 1.00140032055126
# background: 2.98570801965859e-08
#           Q (1/A)             dQ (1/A)                    R                   dR               theory              fresnel
      0.010084459364     0.00010301271332        0.99060473148       0.010563542732    0.999567844383011    0.883558917274257
      0.010527572831     0.00010516249785        0.97661193666       0.010441279393    0.991648749566495    0.411655759196237
      0.010957382779      0.0001072922675        0.98807846201       0.010539424411    0.983140826832607    0.225123206858226
      0.011400472385     0.00010953100917        0.96423061548       0.010304250072    0.973304124750228    0.149814015174144
      0.011830312024     0.00011174221746        0.95560004233       0.010292935543    0.961469010009106    0.109108088773672
      0.012277757864     0.00011408277381        0.94663621366       0.010226899042     0.94567655844224   0.0822589309883649
      0.012716371148     0.00011641324928        0.91241736146      0.0099023999243     0.92552313909888   0.0643496199676667
      0.013159412929     0.00011880140158        0.90662362274      0.0099148818247    0.898933927817869   0.0514177934415296
      0.013593700546     0.00012117372412        0.87333413658      0.0096539643153    0.864995607795705   0.0420181609203476
      0.014041082168      0.0001236481371        0.82494481857      0.0092914956277    0.819830478162993   0.0346472196464154
      0.014470975218     0.00012605336378        0.77726404339      0.0088960595594    0.764771571866932   0.0291318308651523
        0.0149139815     0.00012855857508        0.70004077822      0.0083146786816     0.69483615955842   0.0246246432215911
      0.015348249037     0.00013103911185         0.6171389073      0.0076590667876    0.613725594405186   0.0210702853648662
      0.015791263766     0.00013359342958        0.51371586062      0.0067930791659    0.521318291904156   0.0181167924124807
      0.016221121047     0.00013609360472        0.43210146033      0.0060959127578    0.428487237086481   0.0157546728983792
      0.016668542802      0.0001387174039        0.33747504569       0.005248827174    0.337254069193113    0.013710470923594
      0.017107181564     0.00014130978984        0.25900984995      0.0044799239449    0.261642489976825   0.0120317151102161
      0.017550214409     0.00014394723651        0.20568003341      0.0039319426566    0.204669417524243   0.0105997327483577
      0.017984456025     0.00014654997154         0.1669950762       0.003509855619    0.168753689394414  0.00940505580616648
      0.018427478239     0.00014922236187        0.14938067717       0.003299486706    0.149682614696253  0.00836095373803115
       0.01885736761     0.00015183111866        0.14723470632      0.0032760406905    0.143652420686745  0.00748753428372297
      0.019304756228     0.00015456152523        0.14685990505      0.0032660539884    0.145539215546913  0.00670025239347168
      0.019734613428     0.00015719903462        0.15368559444      0.0033443112594    0.151255650066337  0.00604179565856565
      0.020177706922     0.00015993148633         0.1602731667      0.0034167878142    0.158269537609151  0.00544817194446992
       0.02061186743     0.00016262169732        0.17100579443      0.0035525634992    0.164368507126309  0.00493749451452946
      0.021059259083     0.00016540653623        0.17073016209      0.0035537884473    0.168727230089761   0.0044739287147385
      0.021489170283     0.00016809406952        0.17086757139      0.0035497180809    0.170514958322341  0.00407994225371317
      0.021940947339     0.00021434759213         0.1692637428      0.0026716588365    0.169318869143957  0.00371759068324712
      0.022809438424     0.00022268882966        0.16493713409      0.0025946367965    0.159965394191965   0.0031249503594223
      0.023677926785     0.00023152492749        0.15289596595      0.0024264399802    0.142638923693599  0.00264551326126543
      0.024563957741     0.00023977165934        0.10751506407       0.001771634727    0.119377055338011  0.00224907199746566
      0.025441211656     0.00024841709665       0.088303047982       0.001561088994   0.0940145012844281  0.00192818028666099
      0.026318465085     0.00025727095267       0.068349112281      0.0013286146911   0.0693942658732153  0.00166341005127887
      0.027195712694     0.00026526542577       0.049524514207      0.0011004025389   0.0479811299085581   0.0014431972767706
      0.028081730878     0.00027403269465       0.034293302921     0.00089206670517   0.0311575009106567  0.00125703018119334
      0.028958971718     0.00028296429757       0.018804220474     0.00058659298013   0.0197269555146293  0.00110170795638155
      0.029836209028     0.00029111479763       0.013705831285     0.00049383275271   0.0130444167234804 0.000969932889402557
      0.030713445318     0.00030012434974       0.010048379471     0.00041549791918    0.010050110295752 0.000857502068809815
      0.031590675251     0.00030874335659       0.010111023927     0.00041146399441  0.00944793179107464 0.000761063348330494
      0.032467901335     0.00031689352918       0.010969321906     0.00042429264199   0.0100172916518074 0.000677923265855516
       0.03332758136     0.00032568473559      0.0098383634437     0.00036540716198   0.0107854329406279 0.000607290915617074
      0.034204799507     0.00033404300924       0.010851910149     0.00038047154869   0.0111707632593342 0.000544548076561236
      0.035090787068     0.00034280985761       0.010917955803     0.00037558170666   0.0108540161820104 0.000489244334290293
      0.035967996729     0.00035132425919      0.0098426088646     0.00035303089459    0.009815445812426 0.000441280617219897
      0.036836431128     0.00035961236078      0.0084111982931     0.00032236632455  0.00823300515479015 0.000399503145770592
      0.037722405411     0.00036840492659      0.0057966679994     0.00024818375104  0.00631360631209048 0.000361892417167209
      0.038599601604     0.00037697116591      0.0038792333272     0.00020073374987   0.0043941009784236 0.000328941284091803
      0.039485566449     0.00038539915318      0.0025842110391     0.00016161373813  0.00268169509650226 0.000299403851607899
      0.040353982388     0.00039431172731      0.0017345313562     0.00013042738943  0.00138757238735557 0.000273622796321942
      0.041239934792     0.00040263527116     0.00064574131373     8.0171699803e-05 0.000529693817091115 0.000250135245524919
      0.042108340889     0.00041131333225     0.00023416108467     4.6696911305e-05 0.000124825171958273 0.000229521240271607
      0.042985515111     0.00042006142086     0.00015610114762     3.8210426241e-05 7.14929185156624e-05  0.00021082620922027
      0.043866209055      0.0004280720557     0.00025480721667     2.1302382721e-05  0.00025382732430572 0.000193939228784306
      0.044735457301     0.00043688417251     0.00051173089549      3.261978336e-05 0.000537502068796186 0.000178907194760124
      0.045612620416     0.00044544968185     0.00078277188085     3.9724786217e-05 0.000815398571270087 0.000165194651104342
      0.046489763366     0.00045380677604     0.00093441709267     4.0937920787e-05  0.00100464288211392 0.000152776788980903
      0.047366915585      0.0004626844313      0.0010145532947     4.2196659438e-05  0.00106522248158519 0.000141510121105376
       0.04824844089     0.00047132363435     0.00096160097525     4.0784638105e-05 0.000995816690108565 0.000131218348900246
       0.04912119229     0.00047960632295     0.00086465326153     3.8348221521e-05 0.000828350735628257 0.000121939649294855
      0.050011468368     0.00048852355243     0.00068963043601     3.4014001444e-05 0.000606533880193666 0.000113307204271234
      0.050879816289     0.00049678399101     0.00036017012694     2.3287691287e-05 0.000394973145404437 0.000105613435680995
      0.051761322925       0.000505422741     0.00024880926448     1.9343909614e-05 0.000233218549763361 9.84632952754652e-05
      0.052638450221     0.00051429985912     0.00019947610649     1.7251630699e-05 0.000158014919768229 9.19412004414274e-05
      0.053515512709     0.00052247371234     0.00022799455419     1.8200968138e-05 0.000181139905931802 8.59527126082003e-05
      0.054392614543      0.0005312981476     0.00034808421059     2.2157159558e-05 0.000295279638239322 8.04457489293803e-05
      0.055269714896     0.00053973220977     0.00052927154891     2.5849477114e-05 0.000476445229679653 7.53743444526674e-05
      0.056146810558      0.0005480620818     0.00068824838884     2.9249240014e-05 0.000690311687884933  7.0697668440977e-05
      0.057019490052     0.00055704650816     0.00089515830071      3.308099682e-05 0.000898277602550709 6.64005768894678e-05
      0.057896529632     0.00056527167281      0.0010591260595     3.5810883106e-05  0.00106863655426104 6.24070307781154e-05
      0.058773635908     0.00057404378496      0.0012324090159     3.8517399444e-05  0.00117527110604163 5.87100200345291e-05
      0.059650704635     0.00058280249683      0.0011456778657     3.5577749008e-05  0.00120532613586773 5.52837812283049e-05
      0.060527730232     0.00059098838396      0.0011764075893     3.5885425852e-05   0.0011589220952219 5.21046265024498e-05
      0.061395988252     0.00059971579702      0.0010522867485     3.3699316235e-05  0.00104878546504267 4.91802200278267e-05
      0.062277413246     0.00060817074088     0.00092151015127     3.1355730135e-05 0.000891476493707058   4.641903104576e-05
      0.063154441007     0.00061649948696     0.00072590486596     2.7639608255e-05 0.000713462322860477  4.3861760121545e-05
      0.064035837499     0.00062547460148     0.00051347313404     2.2215963887e-05 0.000537039636149314 4.14672780110661e-05
      0.064904074592     0.00063391515377      0.0003680230663     1.8721246415e-05 0.000385557961933653 3.92667095813556e-05
      0.065785465608     0.00064249966754     0.00026310394387      1.577293957e-05 0.000268193218339696 3.71806889822018e-05
      0.066666839476     0.00065113598309     0.00020685113679     1.3954871944e-05 0.000193634799218954  3.5231698324118e-05
      0.067543824032     0.00065933380044     0.00015530768455     1.2103251412e-05 0.000160620802328533 3.34178633899526e-05
      0.068420800357     0.00066805191461     0.00017131597787     1.2209214409e-05 0.000161274208960239 3.17197109034802e-05
      0.069297773573     0.00067697826677     0.00017203442999     1.2184781878e-05 0.000184180651694718 3.01284140616826e-05
      0.070176918396     0.00068524504903     0.00022387809706     9.7761542625e-06 0.000216564131128857 2.86323018435671e-05
      0.071047306796      0.0006939492943      0.0002544271925     1.4553728034e-05 0.000246092037341008 2.72417669505475e-05
      0.071924246884     0.00070217226995     0.00027433460766     1.5045278639e-05 0.000264129186839946 2.59253876485678e-05
      0.072801166802     0.00071088955868      0.0002729852195     1.4499541991e-05  0.00026504132497002  2.4687936019565e-05
      0.073682480629     0.00071968075089     0.00025785787722     1.3842257576e-05 0.000247545390515853 2.35179040233166e-05
      0.074555022652     0.00072793339475       0.000240579486     1.3446967183e-05 0.000214556351963537 2.24271938566986e-05
      0.075431933784     0.00073649408099     0.00016637946129     1.1184237397e-05 0.000170944937924883 2.13942390379603e-05
      0.076313209758     0.00074559714996     9.5300275892e-05     8.5189387573e-06 0.000123276274994051   2.041556811493e-05
        0.0771944892     0.00075363283361      6.867740908e-05     7.0072603399e-06 7.85001379085975e-05 1.94923064392921e-05
      0.078071374206     0.00076245321781     3.6632016619e-05     5.2821378659e-06 4.23352902384497e-05 1.86250627814103e-05
       0.07894384588     0.00077106919245     2.3021967803e-05      4.343532116e-06 1.81097778143504e-05 1.78096917886281e-05
      0.079820710718     0.00077921262551     1.3468133092e-05     3.5184201106e-06 6.69273969551695e-06  1.7034814329205e-05
      0.080697560604     0.00078808443737     2.2245499774e-05     4.1865563184e-06  7.1343049395541e-06 1.63017960794327e-05
      0.081574400657     0.00079656569431     2.4208369277e-05     4.1302985426e-06 1.65537333811314e-05 1.56079031430933e-05
      0.082451230771     0.00080512491044     5.7235652434e-05     5.9878376595e-06 3.10701315881438e-05 1.49506719370849e-05
      0.083328050838     0.00081384006398     5.9788481589e-05     6.0819531944e-06 4.65993159885838e-05  1.4327802203353e-05
      0.084204860752     0.00082211262019     7.2997741246e-05     6.6546305754e-06 5.96163479945928e-05 1.37371393314616e-05
      0.085081665632     0.00083087938932     8.8135155096e-05     7.2383178454e-06 6.77070613345012e-05 1.31767269392293e-05
      0.085962849115     0.00083961600471     7.9706106921e-05      6.692427931e-06 6.98693888723151e-05 1.26421035804256e-05
      0.086835233731     0.00084796999644     6.5938970325e-05     6.1083868837e-06 6.65225124670373e-05 1.21393459919746e-05
      0.087707600961     0.00085671411608     6.6912274878e-05     6.1183561122e-06 5.92587478065825e-05 1.16614592844507e-05
      0.088584357408     0.00086498563599       5.82564353e-05     5.6998776564e-06 5.02969880471586e-05 1.12047122853745e-05
      0.089465517328     0.00087356536711     4.3920977921e-05       4.95861459e-06 4.21342784627456e-05 1.07680667425426e-05
      0.090346631345     0.00088227476591     3.2107728506e-05     4.1321866589e-06 3.70600340617244e-05 1.03525834094701e-05
      0.091218940428     0.00089040625657     4.2824634317e-05     4.6790617978e-06 3.65915253873989e-05   9.960870641433e-06
       0.09209567241     0.00089931476719     3.1711823817e-05     4.0532474086e-06 4.12817743535978e-05 9.58576008400209e-06
      0.092972396898     0.00090800175337     5.1277720685e-05     5.0481406366e-06 5.07443667581264e-05  9.2282123153212e-06
      0.093849058561     0.00091621986952      6.822820106e-05     5.7696284361e-06  6.3727672106803e-05 8.88726491503127e-06
      0.094725777149     0.00092514061593     7.6016815825e-05     5.8925209099e-06 7.83934233325472e-05 8.56198034335661e-06
      0.095602404582     0.00093367040114     9.4681391096e-05     6.5362033678e-06 9.26455646590474e-05 8.25153512685669e-06
      0.096479093013     0.00094191421309     0.00010273653453     6.7870304795e-06 0.000104506279984798 7.95507186372025e-06
      0.097355717108     0.00095083400682     9.6630388757e-05     6.5469493489e-06 0.000112398554683287 7.67191984423766e-06
      0.098236738141     0.00095915115015     0.00011467310537      7.092056533e-06 0.000115418923191184 7.39995584667662e-06
      0.099108987995     0.00096758036921     0.00010228948945     6.5341357087e-06 0.000113348493321339 7.14252908754815e-06
      0.099985596882     0.00097621335137      0.0001068847254     6.6603304514e-06 0.000106689455205681 6.89505572407026e-06
       0.10086219359     0.00098463800973     9.0812081726e-05     6.1141821749e-06   9.649739691561e-05 6.65826402703631e-06
       0.10173439628     0.00099337860324     8.1197717047e-05     5.7703577502e-06 8.42369754410578e-05 6.43272044752654e-06
       0.10261535002      0.0010020327787     7.1882384762e-05     5.4229221945e-06   7.122186524515e-05 6.21457601316909e-06
       0.10348315299      0.0010102827638     5.2587759463e-05     4.5435544323e-06 5.91351043195967e-05  6.0087030972398e-06
       0.10436846689      0.0010193226877     4.1957588996e-05     4.0651454688e-06 4.86317569503009e-05 5.80744320949733e-06
       0.10524500108      0.0010275119373     3.6314975108e-05     3.8042514245e-06 4.06830930065449e-05 5.61645092593265e-06
       0.10612152244       0.001036299283     3.4990761788e-05     3.7175893598e-06 3.53505244006822e-05 5.43330125096221e-06
       0.10699803087      0.0010447742712     2.3933068182e-05     3.1048200193e-06 3.23836237052664e-05 5.25760188321119e-06
       0.10787452627      0.0010529628425     3.2292791476e-05     3.5372064965e-06 3.12208222266128e-05 5.08899259309667e-06
       0.10875100852      0.0010618014204     2.8121155687e-05     3.3027541566e-06 3.11257147480864e-05 4.92713948141433e-06
       0.10961871143      0.0010705438508     2.9163576217e-05     3.1984370331e-06 3.13301870625814e-05 4.77323950520881e-06
       0.11049516721      0.0010786796366     2.5854765273e-05     3.0244135614e-06 3.11821663657573e-05 4.62387766929322e-06
       0.11137597868      0.0010876174547     2.8445279344e-05     3.1475299675e-06 3.02053541783376e-05 4.47966002413882e-06
       0.11225241396      0.0010959608065     2.5789509905e-05     3.0016777236e-06 2.81901368751526e-05 4.34173124990755e-06
         0.113124448      0.0011044900833     2.1783675264e-05     2.7784729619e-06 2.51765230053555e-05 4.20976416859209e-06
       0.11400522721      0.0011132970159     1.9146190679e-05     2.6224934679e-06 2.13432790728708e-05 4.08156684527926e-06
       0.11488161785      0.0011217956454     1.2161666379e-05     2.1558287629e-06 1.71068969201023e-05 3.95884951378102e-06
       0.11575800773      0.0011301640627     1.4800696029e-05     2.3212021887e-06 1.28638025621683e-05 3.84074487196832e-06
       0.11663435743      0.0011386881622     7.6021423197e-06     1.7785451192e-06 8.99912405096742e-06 3.72705518195857e-06
       0.11751070221      0.0011470559409     2.9399182889e-06     1.3142018246e-06 5.80504784609437e-06  3.6175767423225e-06
       0.11838702796      0.0011560475719     3.7497061212e-06     1.4057375658e-06 3.44541236241371e-06 3.51212946825713e-06
       0.11926335713      0.0011642848857     1.7134351399e-06     1.1096978514e-06 1.94266275345197e-06 3.41052635541404e-06
       0.12014404353      0.0011729858762    -3.4259103256e-08     8.8696714753e-07 1.19911142853635e-06  3.3121299224381e-06
       0.12102033055      0.0011818335353     7.1896472254e-07     1.0215017443e-06 1.04019488873303e-06 3.21776250599722e-06
       0.12190097462      0.0011900528909     3.3360923461e-06     1.3481561307e-06 1.24030934035377e-06 3.12630962598923e-06
       0.12277286025      0.0011987091156      2.695664827e-06     1.3106664021e-06 1.58757022218297e-06 3.03897903759204e-06
       0.12364910271      0.0012074651326     3.1187254826e-06     1.3305308508e-06 1.92563899500655e-06 2.95429478919351e-06
        0.1245253301      0.0012154406501     5.7168960522e-06     1.5590662391e-06 2.16480105731663e-06 2.87256874405243e-06
       0.12540154233      0.0012244299843     2.4316228924e-06     1.2370279333e-06 2.29511158733379e-06 2.79368521551067e-06
       0.12627774972      0.0012330289389     2.3260442178e-06     1.2191838033e-06 2.37592874128801e-06 2.71751962626083e-06
       0.12715393127      0.0012411597522     5.3941584519e-06     1.5144930618e-06 2.51211337755449e-06 2.64396150988394e-06
       0.12803009734      0.0012499400347     4.1697546951e-06       1.33499273e-06 2.82518522374676e-06 2.57290816411179e-06
        0.1289062478      0.0012584081434     6.4811185529e-06     1.5374388469e-06 3.42200978832878e-06 2.50425395996931e-06
       0.12978238256      0.0012670578817     6.3554820116e-06     1.5390224581e-06 4.37072485875258e-06  2.4379043207549e-06
        0.1306585015      0.0012757334285     9.3026584575e-06     1.7642049112e-06 5.68450302877853e-06 2.37376621311846e-06
       0.13153020086      0.0012839966122     9.8516214807e-06     1.8130310876e-06 7.30906282825447e-06 2.31205734830233e-06
       0.13240630373      0.0012927494736      1.377023955e-05     2.0380219867e-06 9.16564204972016e-06 2.25207207711331e-06
       0.13328677072      0.0013011341356      1.415720526e-05     2.0423164012e-06 1.11261560699534e-05 2.19376080074978e-06
       0.13416719928      0.0013095963118     1.7250266337e-05     2.2000325559e-06 1.30376052207118e-05 2.13735263120271e-06
       0.13503885527      0.0013184302045     2.1510943897e-05     2.4037523493e-06 1.47507649115395e-05 2.08330784265409e-06
