# intensity: 1.00229301363113
# background: 8.04173745415775e-08
#           Q (1/A)             dQ (1/A)                    R                   dR               theory              fresnel
      0.010084459364     0.00010301271332        0.99060473148       0.010563542732     1.00045725106292    0.884346611784994
      0.010527572831     0.00010516249785        0.97661193666       0.010441279393    0.992524916547475    0.412022778104082
      0.010957382779      0.0001072922675        0.98807846201       0.010539424411    0.984013692561624    0.225323942297587
      0.011400472385     0.00010953100917        0.96423061548       0.010304250072    0.974185196690178    0.149947616628337
      0.011830312024     0.00011174221746        0.95560004233       0.010292935543    0.962371347750613    0.109205403142609
      0.012277757864     0.00011408277381        0.94663621366       0.010226899042    0.946619960386595   0.0823323108159768
      0.012716371148     0.00011641324928        0.91241736146      0.0099023999243    0.926532472172728   0.0644070346336091
      0.013159412929     0.00011880140158        0.90662362274      0.0099148818247    0.900044114220207   0.0514636800983302
      0.013593700546     0.00012117372412        0.87333413658      0.0096539643153    0.866246111758481   0.0420556683238838
      0.014041082168      0.0001236481371        0.82494481857      0.0092914956277    0.821272702232585   0.0346781562628924
      0.014470975218     0.00012605336378        0.77726404339      0.0088960595594    0.766436624837988   0.0291578508171378
        0.0149139815     0.00012855857508        0.70004077822      0.0083146786816    0.696743130153144   0.0246466452647179
      0.015348249037     0.00013103911185         0.6171389073      0.0076590667876    0.615825958507274   0.0210891188942657
      0.015791263766     0.00013359342958        0.51371586062      0.0067930791659    0.523489674673036   0.0181329930660304
      0.016221121047     0.00013609360472        0.43210146033      0.0060959127578    0.430529601351338   0.0157687678528386
      0.016668542802      0.0001387174039        0.33747504569       0.005248827174    0.338928547050884   0.0137227435848912
      0.017107181564     0.00014130978984        0.25900984995      0.0044799239449    0.262783970590264   0.0120424912534209
      0.017550214409     0.00014394723651        0.20568003341      0.0039319426566    0.205223551739033   0.0106092323583733
      0.017984456025     0.00014654997154         0.1669950762       0.003509855619    0.168809514598769  0.00941349042766835
      0.018427478239     0.00014922236187        0.14938067717       0.003299486706    0.149385682905004  0.00836845760020353
       0.01885736761     0.00015183111866        0.14723470632      0.0032760406905    0.143178469902408  0.00749425954068954
      0.019304756228     0.00015456152523        0.14685990505      0.0032660539884    0.145026849333989  0.00670627583211355
      0.019734613428     0.00015719903462        0.15368559444      0.0033443112594    0.150805124558973  0.00604723211939397
      0.020177706922     0.00015993148633         0.1602731667      0.0034167878142    0.157944046169921  0.00545307922254211
       0.02061186743     0.00016262169732        0.17100579443      0.0035525634992     0.16419453434155  0.00494194655187683
      0.021059259083     0.00016540653623        0.17073016209      0.0035537884473    0.168717163437289  0.00447796750877744
      0.021489170283     0.00016809406952        0.17086757139      0.0035497180809    0.170655968955953  0.00408362983058141
      0.021940947339     0.00021434759213         0.1692637428      0.0026716588365    0.169600116459025  0.00372095524370245
      0.022809438424     0.00022268882966        0.16493713409      0.0025946367965    0.160457698909202  0.00312778661375961
      0.023677926785     0.00023152492749        0.15289596595      0.0024264399802    0.143253198023978  0.00264792212390835
      0.024563957741     0.00023977165934        0.10751506407       0.001771634727    0.120024358979439  0.00225112745461678
      0.025441211656     0.00024841709665       0.088303047982       0.001561088994   0.0946167491958814  0.00192994968657432
      0.026318465085     0.00025727095267       0.068349112281      0.0013286146911   0.0698961382459031  0.00166494342315024
      0.027195712694     0.00026526542577       0.049524514207      0.0011004025389   0.0483551522502456  0.00144453434111553
      0.028081730878     0.00027403269465       0.034293302921     0.00089206670517   0.0314027302856003   0.0012582012878543
      0.028958971718     0.00028296429757       0.018804220474     0.00058659298013   0.0198668087709984  0.00110274060185733
      0.029836209028     0.00029111479763       0.013705831285     0.00049383275271   0.0131125896878862 0.000970848064683865
      0.030713445318     0.00030012434974       0.010048379471     0.00041549791918   0.0100817959356512 0.000858317018223958
      0.031590675251     0.00030874335659       0.010111023927     0.00041146399441  0.00947232824000213 0.000761792327951501
      0.032467901335     0.00031689352918       0.010969321906     0.00042429264199   0.0100538941161937 0.000678578130684704
       0.03332758136     0.00032568473559      0.0098383634437     0.00036540716198   0.0108430832290292 0.000607882815606948
      0.034204799507     0.00033404300924       0.010851910149     0.00038047154869   0.0112506585979711 0.000545084044775288
      0.035090787068     0.00034280985761       0.010917955803     0.00037558170666   0.0109509730094377 0.000489731002272457
      0.035967996729     0.00035132425919      0.0098426088646     0.00035303089459  0.00992054218620916  0.00044172452819726
      0.036836431128     0.00035961236078      0.0084111982931     0.00032236632455  0.00833665241449841 0.000399909814439468
      0.037722405411     0.00036840492659      0.0057966679994     0.00024818375104  0.00640710534155002 0.000362265557948722
      0.038599601604     0.00037697116591      0.0038792333272     0.00020073374987  0.00447133290645776 0.000329285050758023
      0.039485566449     0.00038539915318      0.0025842110391     0.00016161373813    0.002739276555432 0.000299721287284369
      0.040353982388     0.00039431172731      0.0017345313562     0.00013042738943  0.00142573854289103 0.000273917249611476
      0.041239934792     0.00040263527116     0.00064574131373     8.0171699803e-05 0.000550373943094236 0.000250408760960101
      0.042108340889     0.00041131333225     0.00023416108467     4.6696911305e-05  0.00013221843375613 0.000229776379459587
      0.042985515111     0.00042006142086     0.00015610114762     3.8210426241e-05 6.99501335814994e-05 0.000211064682820568
      0.043866209055      0.0004280720557     0.00025480721667     2.1302382721e-05 0.000247559813270859 0.000194162648574189
      0.044735457301     0.00043688417251     0.00051173089549      3.261978336e-05 0.000529862186851398 0.000179117214321872
      0.045612620416     0.00044544968185     0.00078277188085     3.9724786217e-05 0.000808474183139088 0.000165392446690745
      0.046489763366     0.00045380677604     0.00093441709267     4.0937920787e-05 0.000999311746047531 0.000152963514729044
      0.047366915585      0.0004626844313      0.0010145532947     4.2196659438e-05  0.00106137089248212 0.000141686803241348
       0.04824844089     0.00047132363435     0.00096160097525     4.0784638105e-05 0.000992730072068655 0.000131385856489697
       0.04912119229     0.00047960632295     0.00086465326153     3.8348221521e-05  0.00082513914468216 0.000122098885436057
      0.050011468368     0.00048852355243     0.00068963043601     3.4014001444e-05 0.000602511669638287 0.000113458745064455
      0.050879816289     0.00049678399101     0.00036017012694     2.3287691287e-05 0.000389969523516302 0.000105758117904433
      0.051761322925       0.000505422741     0.00024880926448     1.9343909614e-05 0.000227601800165857 9.86016035436237e-05
      0.052638450221     0.00051429985912     0.00019947610649     1.7251630699e-05 0.000152685615331974 9.20736946222474e-05
      0.053515512709     0.00052247371234     0.00022799455419     1.8200968138e-05 0.000177314847581354 8.60798683828525e-05
      0.054392614543      0.0005312981476     0.00034808421059     2.2157159558e-05 0.000294231462421754 8.05679955500545e-05
      0.055269714896     0.00053973220977     0.00052927154891     2.5849477114e-05 0.000479223380162652 7.54920701963371e-05
      0.056146810558      0.0005480620818     0.00068824838884     2.9249240014e-05 0.000697515435409169 7.08112251862684e-05
      0.057019490052     0.00055704650816     0.00089515830071      3.308099682e-05 0.000909897725047062 6.65103030149631e-05
      0.057896529632     0.00056527167281      0.0010591260595     3.5810883106e-05  0.00108410182996334 6.25131968778104e-05
      0.058773635908     0.00057404378496      0.0012324090159     3.8517399444e-05   0.0011934656860743 5.88128904533267e-05
      0.059650704635     0.00058280249683      0.0011456778657     3.5577749008e-05  0.00122478844159553  5.5383597344433e-05
      0.060527730232     0.00059098838396      0.0011764075893     3.5885425852e-05  0.00117807418047734   5.220160857772e-05
      0.061395988252     0.00059971579702      0.0010522867485     3.3699316235e-05  0.00106618919170282 4.92745951562355e-05
      0.062277413246     0.00060817074088     0.00092151015127     3.1355730135e-05 0.000905964051457588 4.65109447266878e-05
      0.063154441007     0.00061649948696     0.00072590486596     2.7639608255e-05 0.000724373516621497 4.39513941366782e-05
      0.064035837499     0.00062547460148     0.00051347313404     2.2215963887e-05 0.000544206374232115 4.15547774776417e-05
      0.064904074592     0.00063391515377      0.0003680230663     1.8721246415e-05 0.000389378720132924 3.93522473627104e-05
      0.065785465608     0.00064249966754     0.00026310394387      1.577293957e-05 0.000269358406715274 3.72643671914003e-05
      0.066666839476     0.00065113598309     0.00020685113679     1.3954871944e-05  0.00019312989324414 3.53136391157847e-05
      0.067543824032     0.00065933380044     0.00015530768455     1.2103251412e-05 0.000159494058026431 3.34981872479511e-05
      0.068420800357     0.00066805191461     0.00017131597787     1.2209214409e-05 0.000160457938104675 3.17985209523235e-05
      0.069297773573     0.00067697826677     0.00017203442999     1.2184781878e-05 0.000184369884368396 3.02058055572765e-05
      0.070176918396     0.00068524504903     0.00022387809706     9.7761542625e-06 0.000218144302359776 2.87083596377467e-05
      0.071047306796      0.0006939492943      0.0002544271925     1.4553728034e-05 0.000249102502584638 2.73165851596671e-05
      0.071924246884     0.00070217226995     0.00027433460766     1.5045278639e-05 0.000268347943805142 2.59990323782415e-05
      0.072801166802     0.00071088955868      0.0002729852195     1.4499541991e-05 0.000270029973976998 2.47604776294541e-05
      0.073682480629     0.00071968075089     0.00025785787722     1.3842257576e-05 0.000252768597891713 2.35894026143002e-05
      0.074555022652     0.00072793339475       0.000240579486     1.3446967183e-05 0.000219490467467203  2.2497720139807e-05
      0.075431933784     0.00073649408099     0.00016637946129     1.1184237397e-05 0.000175169629870541 2.14638444988965e-05
      0.076313209758     0.00074559714996     9.5300275892e-05     8.5189387573e-06 0.000126532287832866 2.04843011447889e-05
        0.0771944892     0.00075363283361      6.867740908e-05     7.0072603399e-06 8.07223259664965e-05 1.95602164323576e-05
      0.078071374206     0.00076245321781     3.6632016619e-05     5.2821378659e-06 4.36387586687725e-05 1.86921996746514e-05
       0.07894384588     0.00077106919245     2.3021967803e-05      4.343532116e-06 1.87350617029733e-05  1.7876101823661e-05
      0.079820710718     0.00077921262551     1.3468133092e-05     3.5184201106e-06 6.93641039692194e-06 1.71005336037781e-05
      0.080697560604     0.00078808443737     2.2245499774e-05     4.1865563184e-06 7.29155219365103e-06 1.63668619087197e-05
      0.081574400657     0.00079656569431     2.4208369277e-05     4.1302985426e-06 1.68534100097308e-05 1.56723504051502e-05
      0.082451230771     0.00080512491044     5.7235652434e-05     5.9878376595e-06 3.16344354685846e-05 1.50145333138196e-05
      0.083328050838     0.00081384006398     5.9788481589e-05     6.0819531944e-06 4.74282469635824e-05 1.43911083261203e-05
      0.084204860752     0.00082211262019     7.2997741246e-05     6.6546305754e-06 6.05984505849703e-05    1.37999189109e-05
      0.085081665632     0.00083087938932     8.8135155096e-05     7.2383178454e-06 6.86514839706277e-05 1.32390069419708e-05
      0.085962849115     0.00083961600471     7.9706106921e-05      6.692427931e-06  7.0550236897513e-05 1.27039069959693e-05
      0.086835233731     0.00084796999644     6.5938970325e-05     6.1083868837e-06 6.67356277248934e-05 1.22007012268948e-05
      0.087707600961     0.00085671411608     6.6912274878e-05     6.1183561122e-06 5.88569456153356e-05 1.17223885097641e-05
      0.088584357408     0.00086498563599       5.82564353e-05     5.6998776564e-06 4.92171720502194e-05 1.12652343459637e-05
      0.089465517328     0.00087356536711     4.3920977921e-05       4.95861459e-06 4.04121968953842e-05 1.08281995577457e-05
      0.090346631345     0.00088227476591     3.2107728506e-05     4.1321866589e-06 3.48259486118026e-05 1.04123458442283e-05
      0.091218940428     0.00089040625657     4.2824634317e-05     4.6790617978e-06 3.40422759442511e-05 1.00202838858922e-05
       0.09209567241     0.00089931476719     3.1711823817e-05     4.0532474086e-06 3.86349875380387e-05 9.64483893811616e-06
      0.092972396898     0.00090800175337     5.1277720685e-05     5.0481406366e-06 4.82059319810843e-05 9.28697243534635e-06
      0.093849058561     0.00091621986952      6.822820106e-05     5.7696284361e-06 6.14539544486137e-05 8.94572109927909e-06
      0.094725777149     0.00092514061593     7.6016815825e-05     5.8925209099e-06 7.64663852163205e-05 8.62014655437379e-06
      0.095602404582     0.00093367040114     9.4681391096e-05     6.5362033678e-06 9.10623212489982e-05 8.30942459310879e-06
      0.096479093013     0.00094191421309     0.00010273653453     6.7870304795e-06 0.000103185449122645 8.01269704934651e-06
      0.097355717108     0.00095083400682     9.6630388757e-05     6.5469493489e-06 0.000111200060753174 7.72929261547664e-06
      0.098236738141     0.00095915115015     0.00011467310537      7.092056533e-06 0.000114174995783206 7.45708617703196e-06
      0.099108987995     0.00096758036921     0.00010228948945     6.5341357087e-06 0.000111899650538234 7.19942993616503e-06
      0.099985596882     0.00097621335137      0.0001068847254     6.6603304514e-06 0.000104913361232118 6.95173596385119e-06
       0.10086219359     0.00098463800973     9.0812081726e-05     6.1141821749e-06 9.43360686013751e-05 6.71473318009701e-06
       0.10173439628     0.00099337860324     8.1197717047e-05     5.7703577502e-06 8.17104630691466e-05 6.48898854094256e-06
       0.10261535002      0.0010020327787     7.1882384762e-05     5.4229221945e-06  6.8420763072651e-05 6.27064964286968e-06
       0.10348315299      0.0010102827638     5.2587759463e-05     4.5435544323e-06 5.62170581166775e-05  6.0645932026059e-06
       0.10436846689      0.0010193226877     4.1957588996e-05     4.0651454688e-06 4.57903065692674e-05 5.86315390278881e-06
       0.10524500108      0.0010275119373     3.6314975108e-05     3.8042514245e-06 3.81209353844848e-05 5.67199136015155e-06
       0.10612152244       0.001036299283     3.4990761788e-05     3.7175893598e-06 3.32494933494011e-05 5.48867841736097e-06
       0.10699803087      0.0010447742712     2.3933068182e-05     3.1048200193e-06 3.08788417177249e-05 5.31282242332723e-06
       0.10787452627      0.0010529628425     3.2292791476e-05     3.5372064965e-06 3.03836575689301e-05 5.14406282734262e-06
       0.10875100852      0.0010618014204     2.8121155687e-05     3.3027541566e-06 3.09568430222726e-05 4.98206543255013e-06
       0.10961871143      0.0010705438508     2.9163576217e-05     3.1984370331e-06 3.17579957741463e-05 4.82802826301549e-06
       0.11049516721      0.0010786796366     2.5854765273e-05     3.0244135614e-06 3.20943312879534e-05 4.67853327927222e-06
       0.11137597868      0.0010876174547     2.8445279344e-05     3.1475299675e-06  3.1450556066837e-05 4.53418707205211e-06
       0.11225241396      0.0010959608065     2.5789509905e-05     3.0016777236e-06 2.96032730511195e-05 4.39613534193622e-06
         0.113124448      0.0011044900833     2.1783675264e-05     2.7784729619e-06 2.66057661005783e-05 4.26405061925612e-06
       0.11400522721      0.0011132970159     1.9146190679e-05     2.6224934679e-06 2.26648235832345e-05  4.1357390151097e-06
       0.11488161785      0.0011217956454     1.2161666379e-05     2.1558287629e-06 1.82375029647864e-05 4.01291228788794e-06
       0.11575800773      0.0011301640627     1.4800696029e-05     2.3212021887e-06 1.37629534071657e-05 3.89470236230981e-06
       0.11663435743      0.0011386881622     7.6021423197e-06     1.7785451192e-06  9.6654519393204e-06 3.78091132422034e-06
       0.11751070221      0.0011470559409     2.9399182889e-06     1.3142018246e-06 6.26677186310081e-06 3.67133529060167e-06
       0.11838702796      0.0011560475719     3.7497061212e-06     1.4057375658e-06 3.74755960017547e-06 3.56579401611517e-06
       0.11926335713      0.0011642848857     1.7134351399e-06     1.1096978514e-06 2.13345976395561e-06 3.46410032970838e-06
       0.12014404353      0.0011729858762    -3.4259103256e-08     8.8696714753e-07 1.31834751644359e-06 3.36561618174673e-06
       0.12102033055      0.0011818335353     7.1896472254e-07     1.0215017443e-06 1.11231437354866e-06 3.27116464196587e-06
       0.12190097462      0.0011900528909     3.3360923461e-06     1.3481561307e-06 1.27015399257179e-06 3.17963023676617e-06
       0.12277286025      0.0011987091156      2.695664827e-06     1.3106664021e-06 1.56381318558081e-06 3.09222179797256e-06
       0.12364910271      0.0012074651326     3.1187254826e-06     1.3305308508e-06 1.82527452986333e-06 3.00746205824357e-06
        0.1245253301      0.0012154406501     5.7168960522e-06     1.5590662391e-06 1.96235817714557e-06 2.92566315884686e-06
       0.12540154233      0.0012244299843     2.4316228924e-06     1.2370279333e-06 1.97106090837443e-06 2.84670930999603e-06
       0.12627774972      0.0012330289389     2.3260442178e-06     1.2191838033e-06 1.92413433576753e-06 2.77047582332989e-06
       0.12715393127      0.0012411597522     5.3941584519e-06     1.5144930618e-06 1.94424275070969e-06 2.69685213395476e-06
       0.12803009734      0.0012499400347     4.1697546951e-06       1.33499273e-06 2.17158546718239e-06 2.62573544804903e-06
        0.1289062478      0.0012584081434     6.4811185529e-06     1.5374388469e-06 2.72863925342669e-06 2.55702004247523e-06
       0.12978238256      0.0012670578817     6.3554820116e-06     1.5390224581e-06 3.69310721411384e-06 2.49061125622186e-06
        0.1306585015      0.0012757334285     9.3026584575e-06     1.7642049112e-06 5.07960532811292e-06 2.42641597300471e-06
       0.13153020086      0.0012839966122     9.8516214807e-06     1.8130310876e-06 6.82605317350244e-06  2.3646520981437e-06
       0.13240630373      0.0012927494736      1.377023955e-05     2.0380219867e-06 8.84060726935781e-06 2.30461335339831e-06
       0.13328677072      0.0013011341356      1.415720526e-05     2.0423164012e-06 1.09760952705849e-05 2.24625009575235e-06
       0.13416719928      0.0013095963118     1.7250266337e-05     2.2000325559e-06 1.30573246328686e-05 2.18979164143747e-06
       0.13503885527      0.0013184302045     2.1510943897e-05     2.4037523493e-06 1.49140447043747e-05 2.13569867494468e-06
