# intensity: 0.993646104524134
# background: 4.26587062187641e-07
#           Q (1/A)             dQ (1/A)                    R                   dR               theory              fresnel
      0.010084459364     0.00010301271332        0.99060473148       0.010563542732    0.992410288614349    0.876717588127869
      0.010527572831     0.00010516249785        0.97661193666       0.010441279393    0.987037343684265    0.408468552139211
      0.010957382779      0.0001072922675        0.98807846201       0.010539424411     0.98097879034276    0.223380390897584
      0.011400472385     0.00010953100917        0.96423061548       0.010304250072    0.973627105131131    0.148654346361712
      0.011830312024     0.00011174221746        0.95560004233       0.010292935543    0.964403429551246    0.108263621125466
      0.012277757864     0.00011408277381        0.94663621366       0.010226899042    0.951598610417391   0.0816223663788749
      0.012716371148     0.00011641324928        0.91241736146      0.0099023999243    0.934604959741109   0.0638517338304135
      0.013159412929     0.00011880140158        0.90662362274      0.0099148818247    0.911292171974943    0.051020043258351
      0.013593700546     0.00012117372412        0.87333413658      0.0096539643153    0.880344301247312   0.0416931955961799
      0.014041082168      0.0001236481371        0.82494481857      0.0092914956277    0.837506944737088   0.0343793302685884
      0.014470975218     0.00012605336378        0.77726404339      0.0088960595594    0.783247624019793   0.0289066491989226
        0.0149139815     0.00012855857508        0.70004077822      0.0083146786816    0.711854793878495   0.0244343623896688
      0.015348249037     0.00013103911185         0.6171389073      0.0076590667876    0.626567374111496   0.0209075272509749
      0.015791263766     0.00013359342958        0.51371586062      0.0067930791659     0.52744680131133     0.01797690429565
      0.016221121047     0.00013609360472        0.43210146033      0.0060959127578    0.427264494868313   0.0156330755535988
      0.016668542802      0.0001387174039        0.33747504569       0.005248827174    0.329880068414698   0.0136047025968299
      0.017107181564     0.00014130978984        0.25900984995      0.0044799239449    0.251586367295111   0.0119389460155938
      0.017550214409     0.00014394723651        0.20568003341      0.0039319426566    0.195525852282441   0.0105180520270392
      0.017984456025     0.00014654997154         0.1669950762       0.003509855619    0.162807572203692  0.00933262591381446
      0.018427478239     0.00014922236187        0.14938067717       0.003299486706     0.14762518968142  0.00829660871725799
       0.01885736761     0.00015183111866        0.14723470632      0.0032760406905    0.144719888702107  0.00742995247541541
      0.019304756228     0.00015456152523        0.14685990505      0.0032660539884    0.148601989184055  0.00664876680235716
      0.019734613428     0.00015719903462        0.15368559444      0.0033443112594    0.155005805074621  0.00599540874343734
      0.020177706922     0.00015993148633         0.1602731667      0.0034167878142     0.16172387475426  0.00540638167907644
       0.02061186743     0.00016262169732        0.17100579443      0.0035525634992    0.166883695563099  0.00489965861486831
      0.021059259083     0.00016540653623        0.17073016209      0.0035537884473    0.169925320307655  0.00443968237789314
      0.021489170283     0.00016809406952        0.17086757139      0.0035497180809     0.17036278526841  0.00404874670092275
      0.021940947339     0.00021434759213         0.1692637428      0.0026716588365    0.167886880755886  0.00368920095375983
      0.022809438424     0.00022268882966        0.16493713409      0.0025946367965    0.156773818851188  0.00310114966491234
      0.023677926785     0.00023152492749        0.15289596595      0.0024264399802    0.138911438731481  0.00262542502695168
      0.024563957741     0.00023977165934        0.10751506407       0.001771634727    0.116290106681687  0.00223205355565995
      0.025441211656     0.00024841709665       0.088303047982       0.001561088994   0.0923209074498905  0.00191364662900786
      0.026318465085     0.00025727095267       0.068349112281      0.0013286146911   0.0692835003054444  0.00165092660827074
      0.027195712694     0.00026526542577       0.049524514207      0.0011004025389   0.0491288645173565  0.00143241902337588
      0.028081730878     0.00027403269465       0.034293302921     0.00089206670517   0.0329409562512068  0.00124769348902705
      0.028958971718     0.00028296429757       0.018804220474     0.00058659298013   0.0214798680031319  0.00109357398210969
      0.029836209028     0.00029111479763       0.013705831285     0.00049383275271   0.0142949769939009 0.000962819298603093
      0.030713445318     0.00030012434974       0.010048379471     0.00041549791918   0.0106055008155059 0.000851259071770999
      0.031590675251     0.00030874335659       0.010111023927     0.00041146399441  0.00936811214143736 0.000755567112258925
      0.032467901335     0.00031689352918       0.010969321906     0.00042429264199  0.00951732172414666 0.000673070814439088
       0.03332758136     0.00032568473559      0.0098383634437     0.00036540716198   0.0101264793472043 0.000602985396821909
      0.034204799507     0.00033404300924       0.010851910149     0.00038047154869   0.0105675093065038 0.000540728398960855
      0.035090787068     0.00034280985761       0.010917955803     0.00037558170666   0.0104429395104756 0.000485852894184824
      0.035967996729     0.00035132425919      0.0098426088646     0.00035303089459  0.00963620958597428 0.000438260578057683
      0.036836431128     0.00035961236078      0.0084111982931     0.00032236632455  0.00825239136696017 0.000396806605145413
      0.037722405411     0.00036840492659      0.0057966679994     0.00024818375104  0.00646341107618392 0.000359487110435752
      0.038599601604     0.00037697116591      0.0038792333272     0.00020073374987  0.00459350570080077 0.000326791130268689
      0.039485566449     0.00038539915318      0.0025842110391     0.00016161373813  0.00286736010519755 0.000297482417136743
      0.040353982388     0.00039431172731      0.0017345313562     0.00013042738943  0.00152489826917126 0.000271900994173637
      0.041239934792     0.00040263527116     0.00064574131373     8.0171699803e-05  0.00060948196640209 0.000248595316239135
      0.042108340889     0.00041131333225     0.00023416108467     4.6696911305e-05 0.000158807094094817 0.000228140932913875
      0.042985515111     0.00042006142086     0.00015610114762     3.8210426241e-05  7.7575418825244e-05 0.000209590664457907
      0.043866209055      0.0004280720557     0.00025480721667     2.1302382721e-05  0.00024890334475381 0.000192834446207314
      0.044735457301     0.00043688417251     0.00051173089549      3.261978336e-05 0.000531954125311979 0.000177918810826869
      0.045612620416     0.00044544968185     0.00078277188085     3.9724786217e-05  0.00081238270453429 0.000164312448508966
      0.046489763366     0.00045380677604     0.00093441709267     4.0937920787e-05  0.00100264935496233 0.000151990742521614
      0.047366915585      0.0004626844313      0.0010145532947     4.2196659438e-05  0.00106167589252104  0.00014081131665592
       0.04824844089     0.00047132363435     0.00096160097525     4.0784638105e-05 0.000989963294357283 0.000130599237479984
       0.04912119229     0.00047960632295     0.00086465326153     3.8348221521e-05 0.000822410343203861  0.00012139238630495
      0.050011468368     0.00048852355243     0.00068963043601     3.4014001444e-05 0.000604907573138553 0.000112826785521522
      0.050879816289     0.00049678399101     0.00036017012694     2.3287691287e-05 0.000401862647436783  0.00010519259264989
      0.051761322925       0.000505422741     0.00024880926448     1.9343909614e-05  0.00025081793086303  9.8097818447258e-05
      0.052638450221     0.00051429985912     0.00019947610649     1.7251630699e-05 0.000184497477266513 9.16262266251073e-05
      0.053515512709     0.00052247371234     0.00022799455419     1.8200968138e-05 0.000210779217664402  8.5684109885819e-05
      0.054392614543      0.0005312981476     0.00034808421059     2.2157159558e-05 0.000319679628401788  8.0219788679887e-05
      0.055269714896     0.00053973220977     0.00052927154891     2.5849477114e-05 0.000486812022538887 7.51876539787737e-05
      0.056146810558      0.0005480620818     0.00068824838884     2.9249240014e-05 0.000679913792201007 7.05471912130143e-05
      0.057019490052     0.00055704650816     0.00089515830071      3.308099682e-05 0.000864467365788856 6.62833736434431e-05
      0.057896529632     0.00056527167281      0.0010591260595     3.5810883106e-05  0.00101327104425535 6.23207510485169e-05
      0.058773635908     0.00057404378496      0.0012324090159     3.8517399444e-05  0.00110460848030533 5.86523676374488e-05
      0.059650704635     0.00058280249683      0.0011456778657     3.5577749008e-05  0.00112836880990978  5.5252659475682e-05
      0.060527730232     0.00059098838396      0.0011764075893     3.5885425852e-05  0.00108528774545649 5.20981221301313e-05
      0.061395988252     0.00059971579702      0.0010522867485     3.3699316235e-05 0.000986481637158122 4.91963604251272e-05
      0.062277413246     0.00060817074088     0.00092151015127     3.1355730135e-05   0.0008458070520902 4.64565523587835e-05
      0.063154441007     0.00061649948696     0.00072590486596     2.7639608255e-05   0.0006857258678293 4.39190833367441e-05
      0.064035837499     0.00062547460148     0.00051347313404     2.2215963887e-05 0.000525176869924438 4.15431425939648e-05
      0.064904074592     0.00063391515377      0.0003680230663     1.8721246415e-05 0.000384735483374343 3.93596139860281e-05
      0.065785465608     0.00064249966754     0.00026310394387      1.577293957e-05 0.000272788840754115 3.72897462220901e-05
      0.066666839476     0.00065113598309     0.00020685113679     1.3954871944e-05 0.000198124891885579 3.53558473253004e-05
      0.067543824032     0.00065933380044     0.00015530768455     1.2103251412e-05 0.000160915893059522 3.35560575912697e-05
      0.068420800357     0.00066805191461     0.00017131597787     1.2209214409e-05  0.00015525276179786 3.18710545326104e-05
      0.069297773573     0.00067697826677     0.00017203442999     1.2184781878e-05 0.000171693750804854 3.02920796955309e-05
      0.070176918396     0.00068524504903     0.00022387809706     9.7761542625e-06 0.000198983692382162 2.88075524321054e-05
      0.071047306796      0.0006939492943      0.0002544271925     1.4553728034e-05 0.000225680954778643 2.74277849691858e-05
      0.071924246884     0.00070217226995     0.00027433460766     1.5045278639e-05 0.000243229411429241 2.61215988829179e-05
      0.072801166802     0.00071088955868      0.0002729852195     1.4499541991e-05 0.000245612178566006 2.48937293032289e-05
      0.073682480629     0.00071968075089     0.00025785787722     1.3842257576e-05 0.000230841194028098 2.37327573009423e-05
      0.074555022652     0.00072793339475       0.000240579486     1.3446967183e-05 0.000201033835799052 2.26504929097863e-05
      0.075431933784     0.00073649408099     0.00016637946129     1.1184237397e-05 0.000160521288925622 2.16255366453189e-05
      0.076313209758     0.00074559714996     9.5300275892e-05     8.5189387573e-06 0.000115550010054507 2.06544439361167e-05
        0.0771944892     0.00075363283361      6.867740908e-05     7.0072603399e-06 7.30065141386126e-05 1.97383314198465e-05
      0.078071374206     0.00076245321781     3.6632016619e-05     5.2821378659e-06 3.87396104819527e-05  1.8877803152936e-05
       0.07894384588     0.00077106919245     2.3021967803e-05      4.343532116e-06 1.62848810823786e-05   1.806874588174e-05
      0.079820710718     0.00077921262551     1.3468133092e-05     3.5184201106e-06 6.68835578296761e-06 1.72998685873774e-05
      0.080697560604     0.00078808443737     2.2245499774e-05     4.1865563184e-06 9.03784302947963e-06 1.65725263711991e-05
      0.081574400657     0.00079656569431     2.4208369277e-05     4.1302985426e-06 2.03712154049759e-05 1.58840065065651e-05
      0.082451230771     0.00080512491044     5.7235652434e-05     5.9878376595e-06 3.66331062358473e-05 1.52318644868157e-05
      0.083328050838     0.00081384006398     5.9788481589e-05     6.0819531944e-06  5.3536480048756e-05 1.46138178656523e-05
      0.084204860752     0.00082211262019     7.2997741246e-05     6.6546305754e-06  6.7395847451814e-05 1.40277287165906e-05
      0.085081665632     0.00083087938932     8.8135155096e-05     7.2383178454e-06   7.573045966075e-05  1.3471655806446e-05
      0.085962849115     0.00083961600471     7.9706106921e-05      6.692427931e-06 7.75868509808283e-05 1.29411722356295e-05
      0.086835233731     0.00084796999644     6.5938970325e-05     6.1083868837e-06 7.35474119384682e-05 1.24423076866255e-05
      0.087707600961     0.00085671411608     6.6912274878e-05     6.1183561122e-06 6.54209698773766e-05 1.19681214340451e-05
      0.088584357408     0.00086498563599       5.82564353e-05     5.6998776564e-06 5.56522052489904e-05 1.15149111972685e-05
      0.089465517328     0.00087356536711     4.3920977921e-05       4.95861459e-06 4.69333218657005e-05 1.10816467636663e-05
      0.090346631345     0.00088227476591     3.2107728506e-05     4.1321866589e-06 4.16742485684312e-05 1.06693806729435e-05
      0.091218940428     0.00089040625657     4.2824634317e-05     4.6790617978e-06 4.14065228600387e-05 1.02807010829089e-05
       0.09209567241     0.00089931476719     3.1711823817e-05     4.0532474086e-06 4.66101011343706e-05   9.908495146374e-06
      0.092972396898     0.00090800175337     5.1277720685e-05     5.0481406366e-06 5.67542507450813e-05 9.55371600336806e-06
      0.093849058561     0.00091621986952      6.822820106e-05     5.7696284361e-06 7.04069714377509e-05 9.21540868591161e-06
      0.094725777149     0.00092514061593     7.6016815825e-05     5.8925209099e-06 8.55486781681448e-05 8.89264291394901e-06
      0.095602404582     0.00093367040114     9.4681391096e-05     6.5362033678e-06 9.99337708945172e-05 8.58460159050156e-06
      0.096479093013     0.00094191421309     0.00010273653453     6.7870304795e-06 0.000111489830009651 8.29043395293992e-06
      0.097355717108     0.00095083400682     9.6630388757e-05     6.5469493489e-06 0.000118612045089019 8.00947448510978e-06
      0.098236738141     0.00095915115015     0.00011467310537      7.092056533e-06 0.000120435862781536  7.7396164061763e-06
      0.099108987995     0.00096758036921     0.00010228948945     6.5341357087e-06 0.000116868063075629 7.48418299841838e-06
      0.099985596882     0.00097621335137      0.0001068847254     6.6603304514e-06  0.00010854423896777 7.23862591345767e-06
       0.10086219359     0.00098463800973     9.0812081726e-05     6.1141821749e-06 9.67078702883476e-05 7.00366778281525e-06
       0.10173439628     0.00099337860324     8.1197717047e-05     5.7703577502e-06 8.30145084577319e-05 6.77987067132947e-06
       0.10261535002      0.0010020327787     7.1882384762e-05     5.4229221945e-06 6.89217960735489e-05 6.56341541065651e-06
       0.10348315299      0.0010102827638     5.2587759463e-05     4.5435544323e-06 5.62550998677315e-05 6.35913664546943e-06
       0.10436846689      0.0010193226877     4.1957588996e-05     4.0651454688e-06 4.57134679860785e-05 6.15943518807207e-06
       0.10524500108      0.0010275119373     3.6314975108e-05     3.8042514245e-06 3.82655183227039e-05 5.96992182896535e-06
       0.10612152244       0.001036299283     3.4990761788e-05     3.7175893598e-06 3.38891627369177e-05 5.78819035021062e-06
       0.10699803087      0.0010447742712     2.3933068182e-05     3.1048200193e-06 3.21919526865661e-05 5.61385148816887e-06
       0.10787452627      0.0010529628425     3.2292791476e-05     3.5372064965e-06 3.24305984900851e-05 5.44654780264913e-06
       0.10875100852      0.0010618014204     2.8121155687e-05     3.3027541566e-06 3.36728847255152e-05 5.28594797995311e-06
       0.10961871143      0.0010705438508     2.9163576217e-05     3.1984370331e-06 3.49612625013059e-05  5.1332397086408e-06
       0.11049516721      0.0010786796366     2.5854765273e-05     3.0244135614e-06 3.55299257512998e-05 4.98503443710624e-06
       0.11137597868      0.0010876174547     2.8445279344e-05     3.1475299675e-06 3.48152961157741e-05 4.84193352294594e-06
       0.11225241396      0.0010959608065     2.5789509905e-05     3.0016777236e-06 3.26050952732271e-05 4.70507278263656e-06
         0.113124448      0.0011044900833     2.1783675264e-05     2.7784729619e-06 2.90151442269133e-05  4.5741275716321e-06
       0.11400522721      0.0011132970159     1.9146190679e-05     2.6224934679e-06 2.43405651376722e-05 4.44692292798858e-06
       0.11488161785      0.0011217956454     1.2161666379e-05     2.1558287629e-06 1.91697800669871e-05 4.32515584253998e-06
       0.11575800773      0.0011301640627     1.4800696029e-05     2.3212021887e-06 1.40615232577992e-05 4.20796572900097e-06
       0.11663435743      0.0011386881622     7.6021423197e-06     1.7785451192e-06 9.54447635985073e-06  4.0951563806471e-06
       0.11751070221      0.0011470559409     2.9399182889e-06     1.3142018246e-06 6.00861432825342e-06 3.98652567338521e-06
       0.11838702796      0.0011560475719     3.7497061212e-06     1.4057375658e-06 3.65663871195536e-06 3.88189491687611e-06
       0.11926335713      0.0011642848857     1.7134351399e-06     1.1096978514e-06  2.4864475180823e-06 3.78107855481574e-06
       0.12014404353      0.0011729858762    -3.4259103256e-08     8.8696714753e-07 2.32605364760519e-06 3.68344404210479e-06
       0.12102033055      0.0011818335353     7.1896472254e-07     1.0215017443e-06 2.87897260454201e-06 3.58980734775175e-06
       0.12190097462      0.0011900528909     3.3360923461e-06     1.3481561307e-06 3.79475466865128e-06  3.4990626214894e-06
       0.12277286025      0.0011987091156      2.695664827e-06     1.3106664021e-06 4.73024783646323e-06 3.41240826639703e-06
       0.12364910271      0.0012074651326     3.1187254826e-06     1.3305308508e-06  5.4469915726879e-06 3.32837975970608e-06
        0.1245253301      0.0012154406501     5.7168960522e-06     1.5590662391e-06 5.80346342733563e-06 3.24728654980188e-06
       0.12540154233      0.0012244299843     2.4316228924e-06     1.2370279333e-06  5.7888730656589e-06 3.16901384583122e-06
       0.12627774972      0.0012330289389     2.3260442178e-06     1.2191838033e-06 5.50840219523639e-06 3.09343803513523e-06
       0.12715393127      0.0012411597522     5.3941584519e-06     1.5144930618e-06 5.14622786979214e-06  3.0204495066776e-06
       0.12803009734      0.0012499400347     4.1697546951e-06       1.33499273e-06 4.92096366380795e-06 2.94994635345209e-06
        0.1289062478      0.0012584081434     6.4811185529e-06     1.5374388469e-06  5.0360282640062e-06 2.88182376440816e-06
       0.12978238256      0.0012670578817     6.3554820116e-06     1.5390224581e-06 5.63804624874295e-06 2.81598789518685e-06
        0.1306585015      0.0012757334285     9.3026584575e-06     1.7642049112e-06 6.78740989443636e-06 2.75234643283001e-06
       0.13153020086      0.0012839966122     9.8516214807e-06     1.8130310876e-06 8.43812120338208e-06 2.69111540276064e-06
       0.13240630373      0.0012927494736      1.377023955e-05     2.0380219867e-06 1.04827938460421e-05 2.63159461989032e-06
       0.13328677072      0.0013011341356      1.415720526e-05     2.0423164012e-06 1.27340531117048e-05 2.57373486947946e-06
       0.13416719928      0.0013095963118     1.7250266337e-05     2.2000325559e-06 1.49560339609494e-05 2.51776348941946e-06
       0.13503885527      0.0013184302045     2.1510943897e-05     2.4037523493e-06 1.69095747767049e-05 2.46413718981771e-06
