#      z (A) rho (1e-6/A2) irho (1e-6/A2) rhoM (1e-6/A2) theta (degrees)
-134.51766911   2.14949679   0.00000000   0.00000000   0.00000000
-134.41766911   2.14950524   0.00000000   0.00000000   0.00000000
-134.31766911   2.14951375   0.00000000   0.00000000   0.00000000
-134.21766911   2.14952231   0.00000000   0.00000000   0.00000000
-134.11766911   2.14953093   0.00000000   0.00000000   0.00000000
-134.01766911   2.14953961   0.00000000   0.00000000   0.00000000
-133.91766911   2.14954834   0.00000000   0.00000000   0.00000000
-133.81766911   2.14955714   0.00000000   0.00000000   0.00000000
-133.71766911   2.14956599   0.00000000   0.00000000   0.00000000
-133.61766911   2.14957490   0.00000000   0.00000000   0.00000000
-133.51766911   2.14958387   0.00000000   0.00000000   0.00000000
-133.41766911   2.14959290   0.00000000   0.00000000   0.00000000
-133.31766911   2.14960200   0.00000000   0.00000000   0.00000000
-133.21766911   2.14961115   0.00000000   0.00000000   0.00000000
-133.11766911   2.14962036   0.00000000   0.00000000   0.00000000
-133.01766911   2.14962963   0.00000000   0.00000000   0.00000000
-132.91766911   2.14963897   0.00000000   0.00000000   0.00000000
-132.81766911   2.14964837   0.00000000   0.00000000   0.00000000
-132.71766911   2.14965783   0.00000000   0.00000000   0.00000000
-132.61766911   2.14966735   0.00000000   0.00000000   0.00000000
-132.51766911   2.14967693   0.00000000   0.00000000   0.00000000
-132.41766911   2.14968658   0.00000000   0.00000000   0.00000000
-132.31766911   2.14969629   0.00000000   0.00000000   0.00000000
-132.21766911   2.14970607   0.00000000   0.00000000   0.00000000
-132.11766911   2.14971591   0.00000000   0.00000000   0.00000000
-132.01766911   2.14972582   0.00000000   0.00000000   0.00000000
-131.91766911   2.14973579   0.00000000   0.00000000   0.00000000
-131.81766911   2.14974583   0.00000000   0.00000000   0.00000000
-131.71766911   2.14975593   0.00000000   0.00000000   0.00000000
-131.61766911   2.14976610   0.00000000   0.00000000   0.00000000
-131.51766911   2.14977633   0.00000000   0.00000000   0.00000000
-131.41766911   2.14978664   0.00000000   0.00000000   0.00000000
-131.31766911   2.14979701   0.00000000   0.00000000   0.00000000
-131.21766911   2.14980745   0.00000000   0.00000000   0.00000000
-131.11766911   2.14981795   0.00000000   0.00000000   0.00000000
-131.01766911   2.14982853   0.00000000   0.00000000   0.00000000
-130.91766911   2.14983917   0.00000000   0.00000000   0.00000000
-130.81766911   2.14984989   0.00000000   0.00000000   0.00000000
-130.71766911   2.14986067   0.00000000   0.00000000   0.00000000
-130.61766911   2.14987153   0.00000000   0.00000000   0.00000000
-130.51766911   2.14988245   0.00000000   0.00000000   0.00000000
-130.41766911   2.14989345   0.00000000   0.00000000   0.00000000
-130.31766911   2.14990452   0.00000000   0.00000000   0.00000000
-130.21766911   2.14991566   0.00000000   0.00000000   0.00000000
-130.11766911   2.14992687   0.00000000   0.00000000   0.00000000
-130.01766911   2.14993815   0.00000000   0.00000000   0.00000000
-129.91766911   2.14994951   0.00000000   0.00000000   0.00000000
-129.81766911   2.14996095   0.00000000   0.00000000   0.00000000
-129.71766911   2.14997245   0.00000000   0.00000000   0.00000000
-129.61766911   2.14998403   0.00000000   0.00000000   0.00000000
-129.51766911   2.14999569   0.00000000   0.00000000   0.00000000
-129.41766911   2.15000742   0.00000000   0.00000000   0.00000000
-129.31766911   2.15001923   0.00000000   0.00000000   0.00000000
-129.21766911   2.15003111   0.00000000   0.00000000   0.00000000
-129.11766911   2.15004307   0.00000000   0.00000000   0.00000000
-129.01766911   2.15005510   0.00000000   0.00000000   0.00000000
-128.91766911   2.15006722   0.00000000   0.00000000   0.00000000
-128.81766911   2.15007941   0.00000000   0.00000000   0.00000000
-128.71766911   2.15009168   0.00000000   0.00000000   0.00000000
-128.61766911   2.15010403   0.00000000   0.00000000   0.00000000
-128.51766911   2.15011646   0.00000000   0.00000000   0.00000000
-128.41766911   2.15012897   0.00000000   0.00000000   0.00000000
-128.31766911   2.15014155   0.00000000   0.00000000   0.00000000
-128.21766911   2.15015422   0.00000000   0.00000000   0.00000000
-128.11766911   2.15016697   0.00000000   0.00000000   0.00000000
-128.01766911   2.15017980   0.00000000   0.00000000   0.00000000
-127.91766911   2.15019272   0.00000000   0.00000000   0.00000000
-127.81766911   2.15020571   0.00000000   0.00000000   0.00000000
-127.71766911   2.15021879   0.00000000   0.00000000   0.00000000
-127.61766911   2.15023195   0.00000000   0.00000000   0.00000000
-127.51766911   2.15024520   0.00000000   0.00000000   0.00000000
-127.41766911   2.15025853   0.00000000   0.00000000   0.00000000
-127.31766911   2.15027194   0.00000000   0.00000000   0.00000000
-127.21766911   2.15028544   0.00000000   0.00000000   0.00000000
-127.11766911   2.15029903   0.00000000   0.00000000   0.00000000
-127.01766911   2.15031270   0.00000000   0.00000000   0.00000000
-126.91766911   2.15032646   0.00000000   0.00000000   0.00000000
-126.81766911   2.15034031   0.00000000   0.00000000   0.00000000
-126.71766911   2.15035424   0.00000000   0.00000000   0.00000000
-126.61766911   2.15036826   0.00000000   0.00000000   0.00000000
-126.51766911   2.15038237   0.00000000   0.00000000   0.00000000
-126.41766911   2.15039657   0.00000000   0.00000000   0.00000000
-126.31766911   2.15041086   0.00000000   0.00000000   0.00000000
-126.21766911   2.15042524   0.00000000   0.00000000   0.00000000
-126.11766911   2.15043971   0.00000000   0.00000000   0.00000000
-126.01766911   2.15045427   0.00000000   0.00000000   0.00000000
-125.91766911   2.15046892   0.00000000   0.00000000   0.00000000
-125.81766911   2.15048366   0.00000000   0.00000000   0.00000000
-125.71766911   2.15049850   0.00000000   0.00000000   0.00000000
-125.61766911   2.15051343   0.00000000   0.00000000   0.00000000
-125.51766911   2.15052845   0.00000000   0.00000000   0.00000000
-125.41766911   2.15054357   0.00000000   0.00000000   0.00000000
-125.31766911   2.15055878   0.00000000   0.00000000   0.00000000
-125.21766911   2.15057409   0.00000000   0.00000000   0.00000000
-125.11766911   2.15058949   0.00000000   0.00000000   0.00000000
-125.01766911   2.15060499   0.00000000   0.00000000   0.00000000
-124.91766911   2.15062058   0.00000000   0.00000000   0.00000000
-124.81766911   2.15063627   0.00000000   0.00000000   0.00000000
-124.71766911   2.15065206   0.00000000   0.00000000   0.00000000
-124.61766911   2.15066795   0.00000000   0.00000000   0.00000000
-124.51766911   2.15068394   0.00000000   0.00000000   0.00000000
-124.41766911   2.15070003   0.00000000   0.00000000   0.00000000
-124.31766911   2.15071621   0.00000000   0.00000000   0.00000000
-124.21766911   2.15073250   0.00000000   0.00000000   0.00000000
-124.11766911   2.15074889   0.00000000   0.00000000   0.00000000
-124.01766911   2.15076538   0.00000000   0.00000000   0.00000000
-123.91766911   2.15078197   0.00000000   0.00000000   0.00000000
-123.81766911   2.15079866   0.00000000   0.00000000   0.00000000
-123.71766911   2.15081546   0.00000000   0.00000000   0.00000000
-123.61766911   2.15083236   0.00000000   0.00000000   0.00000000
-123.51766911   2.15084936   0.00000000   0.00000000   0.00000000
-123.41766911   2.15086647   0.00000000   0.00000000   0.00000000
-123.31766911   2.15088369   0.00000000   0.00000000   0.00000000
-123.21766911   2.15090101   0.00000000   0.00000000   0.00000000
-123.11766911   2.15091844   0.00000000   0.00000000   0.00000000
-123.01766911   2.15093597   0.00000000   0.00000000   0.00000000
-122.91766911   2.15095361   0.00000000   0.00000000   0.00000000
-122.81766911   2.15097136   0.00000000   0.00000000   0.00000000
-122.71766911   2.15098922   0.00000000   0.00000000   0.00000000
-122.61766911   2.15100719   0.00000000   0.00000000   0.00000000
-122.51766911   2.15102527   0.00000000   0.00000000   0.00000000
-122.41766911   2.15104346   0.00000000   0.00000000   0.00000000
-122.31766911   2.15106176   0.00000000   0.00000000   0.00000000
-122.21766911   2.15108017   0.00000000   0.00000000   0.00000000
-122.11766911   2.15109869   0.00000000   0.00000000   0.00000000
-122.01766911   2.15111733   0.00000000   0.00000000   0.00000000
-121.91766911   2.15113608   0.00000000   0.00000000   0.00000000
-121.81766911   2.15115494   0.00000000   0.00000000   0.00000000
-121.71766911   2.15117392   0.00000000   0.00000000   0.00000000
-121.61766911   2.15119302   0.00000000   0.00000000   0.00000000
-121.51766911   2.15121223   0.00000000   0.00000000   0.00000000
-121.41766911   2.15123155   0.00000000   0.00000000   0.00000000
-121.31766911   2.15125099   0.00000000   0.00000000   0.00000000
-121.21766911   2.15127056   0.00000000   0.00000000   0.00000000
-121.11766911   2.15129024   0.00000000   0.00000000   0.00000000
-121.01766911   2.15131003   0.00000000   0.00000000   0.00000000
-120.91766911   2.15132995   0.00000000   0.00000000   0.00000000
-120.81766911   2.15134999   0.00000000   0.00000000   0.00000000
-120.71766911   2.15137015   0.00000000   0.00000000   0.00000000
-120.61766911   2.15139043   0.00000000   0.00000000   0.00000000
-120.51766911   2.15141083   0.00000000   0.00000000   0.00000000
-120.41766911   2.15143135   0.00000000   0.00000000   0.00000000
-120.31766911   2.15145200   0.00000000   0.00000000   0.00000000
-120.21766911   2.15147277   0.00000000   0.00000000   0.00000000
-120.11766911   2.15149367   0.00000000   0.00000000   0.00000000
-120.01766911   2.15151469   0.00000000   0.00000000   0.00000000
-119.91766911   2.15153584   0.00000000   0.00000000   0.00000000
-119.81766911   2.15155711   0.00000000   0.00000000   0.00000000
-119.71766911   2.15157852   0.00000000   0.00000000   0.00000000
-119.61766911   2.15160004   0.00000000   0.00000000   0.00000000
-119.51766911   2.15162170   0.00000000   0.00000000   0.00000000
-119.41766911   2.15164349   0.00000000   0.00000000   0.00000000
-119.31766911   2.15166541   0.00000000   0.00000000   0.00000000
-119.21766911   2.15168745   0.00000000   0.00000000   0.00000000
-119.11766911   2.15170963   0.00000000   0.00000000   0.00000000
-119.01766911   2.15173194   0.00000000   0.00000000   0.00000000
-118.91766911   2.15175438   0.00000000   0.00000000   0.00000000
-118.81766911   2.15177696   0.00000000   0.00000000   0.00000000
-118.71766911   2.15179967   0.00000000   0.00000000   0.00000000
-118.61766911   2.15182251   0.00000000   0.00000000   0.00000000
-118.51766911   2.15184549   0.00000000   0.00000000   0.00000000
-118.41766911   2.15186860   0.00000000   0.00000000   0.00000000
-118.31766911   2.15189186   0.00000000   0.00000000   0.00000000
-118.21766911   2.15191524   0.00000000   0.00000000   0.00000000
-118.11766911   2.15193877   0.00000000   0.00000000   0.00000000
-118.01766911   2.15196244   0.00000000   0.00000000   0.00000000
-117.91766911   2.15198624   0.00000000   0.00000000   0.00000000
-117.81766911   2.15201018   0.00000000   0.00000000   0.00000000
-117.71766911   2.15203427   0.00000000   0.00000000   0.00000000
-117.61766911   2.15205850   0.00000000   0.00000000   0.00000000
-117.51766911   2.15208286   0.00000000   0.00000000   0.00000000
-117.41766911   2.15210738   0.00000000   0.00000000   0.00000000
-117.31766911   2.15213203   0.00000000   0.00000000   0.00000000
-117.21766911   2.15215683   0.00000000   0.00000000   0.00000000
-117.11766911   2.15218178   0.00000000   0.00000000   0.00000000
-117.01766911   2.15220687   0.00000000   0.00000000   0.00000000
-116.91766911   2.15223210   0.00000000   0.00000000   0.00000000
-116.81766911   2.15225749   0.00000000   0.00000000   0.00000000
-116.71766911   2.15228302   0.00000000   0.00000000   0.00000000
-116.61766911   2.15230870   0.00000000   0.00000000   0.00000000
-116.51766911   2.15233453   0.00000000   0.00000000   0.00000000
-116.41766911   2.15236051   0.00000000   0.00000000   0.00000000
-116.31766911   2.15238664   0.00000000   0.00000000   0.00000000
-116.21766911   2.15241292   0.00000000   0.00000000   0.00000000
-116.11766911   2.15243935   0.00000000   0.00000000   0.00000000
-116.01766911   2.15246594   0.00000000   0.00000000   0.00000000
-115.91766911   2.15249268   0.00000000   0.00000000   0.00000000
-115.81766911   2.15251958   0.00000000   0.00000000   0.00000000
-115.71766911   2.15254663   0.00000000   0.00000000   0.00000000
-115.61766911   2.15257384   0.00000000   0.00000000   0.00000000
-115.51766911   2.15260120   0.00000000   0.00000000   0.00000000
-115.41766911   2.15262873   0.00000000   0.00000000   0.00000000
-115.31766911   2.15265641   0.00000000   0.00000000   0.00000000
-115.21766911   2.15268425   0.00000000   0.00000000   0.00000000
-115.11766911   2.15271225   0.00000000   0.00000000   0.00000000
-115.01766911   2.15274041   0.00000000   0.00000000   0.00000000
-114.91766911   2.15276873   0.00000000   0.00000000   0.00000000
-114.81766911   2.15279722   0.00000000   0.00000000   0.00000000
-114.71766911   2.15282586   0.00000000   0.00000000   0.00000000
-114.61766911   2.15285468   0.00000000   0.00000000   0.00000000
-114.51766911   2.15288365   0.00000000   0.00000000   0.00000000
-114.41766911   2.15291279   0.00000000   0.00000000   0.00000000
-114.31766911   2.15294210   0.00000000   0.00000000   0.00000000
-114.21766911   2.15297158   0.00000000   0.00000000   0.00000000
-114.11766911   2.15300122   0.00000000   0.00000000   0.00000000
-114.01766911   2.15303103   0.00000000   0.00000000   0.00000000
-113.91766911   2.15306102   0.00000000   0.00000000   0.00000000
-113.81766911   2.15309117   0.00000000   0.00000000   0.00000000
-113.71766911   2.15312149   0.00000000   0.00000000   0.00000000
-113.61766911   2.15315199   0.00000000   0.00000000   0.00000000
-113.51766911   2.15318265   0.00000000   0.00000000   0.00000000
-113.41766911   2.15321350   0.00000000   0.00000000   0.00000000
-113.31766911   2.15324451   0.00000000   0.00000000   0.00000000
-113.21766911   2.15327570   0.00000000   0.00000000   0.00000000
-113.11766911   2.15330707   0.00000000   0.00000000   0.00000000
-113.01766911   2.15333862   0.00000000   0.00000000   0.00000000
-112.91766911   2.15337034   0.00000000   0.00000000   0.00000000
-112.81766911   2.15340224   0.00000000   0.00000000   0.00000000
-112.71766911   2.15343432   0.00000000   0.00000000   0.00000000
-112.61766911   2.15346658   0.00000000   0.00000000   0.00000000
-112.51766911   2.15349902   0.00000000   0.00000000   0.00000000
-112.41766911   2.15353165   0.00000000   0.00000000   0.00000000
-112.31766911   2.15356445   0.00000000   0.00000000   0.00000000
-112.21766911   2.15359745   0.00000000   0.00000000   0.00000000
-112.11766911   2.15363062   0.00000000   0.00000000   0.00000000
-112.01766911   2.15366398   0.00000000   0.00000000   0.00000000
-111.91766911   2.15369753   0.00000000   0.00000000   0.00000000
-111.81766911   2.15373126   0.00000000   0.00000000   0.00000000
-111.71766911   2.15376519   0.00000000   0.00000000   0.00000000
-111.61766911   2.15379930   0.00000000   0.00000000   0.00000000
-111.51766911   2.15383360   0.00000000   0.00000000   0.00000000
-111.41766911   2.15386809   0.00000000   0.00000000   0.00000000
-111.31766911   2.15390278   0.00000000   0.00000000   0.00000000
-111.21766911   2.15393765   0.00000000   0.00000000   0.00000000
-111.11766911   2.15397272   0.00000000   0.00000000   0.00000000
-111.01766911   2.15400799   0.00000000   0.00000000   0.00000000
-110.91766911   2.15404345   0.00000000   0.00000000   0.00000000
-110.81766911   2.15407911   0.00000000   0.00000000   0.00000000
-110.71766911   2.15411496   0.00000000   0.00000000   0.00000000
-110.61766911   2.15415101   0.00000000   0.00000000   0.00000000
-110.51766911   2.15418726   0.00000000   0.00000000   0.00000000
-110.41766911   2.15422371   0.00000000   0.00000000   0.00000000
-110.31766911   2.15426036   0.00000000   0.00000000   0.00000000
-110.21766911   2.15429721   0.00000000   0.00000000   0.00000000
-110.11766911   2.15433427   0.00000000   0.00000000   0.00000000
-110.01766911   2.15437153   0.00000000   0.00000000   0.00000000
-109.91766911   2.15440899   0.00000000   0.00000000   0.00000000
-109.81766911   2.15444666   0.00000000   0.00000000   0.00000000
-109.71766911   2.15448453   0.00000000   0.00000000   0.00000000
-109.61766911   2.15452261   0.00000000   0.00000000   0.00000000
-109.51766911   2.15456090   0.00000000   0.00000000   0.00000000
-109.41766911   2.15459940   0.00000000   0.00000000   0.00000000
-109.31766911   2.15463811   0.00000000   0.00000000   0.00000000
-109.21766911   2.15467703   0.00000000   0.00000000   0.00000000
-109.11766911   2.15471616   0.00000000   0.00000000   0.00000000
-109.01766911   2.15475551   0.00000000   0.00000000   0.00000000
-108.91766911   2.15479507   0.00000000   0.00000000   0.00000000
-108.81766911   2.15483484   0.00000000   0.00000000   0.00000000
-108.71766911   2.15487483   0.00000000   0.00000000   0.00000000
-108.61766911   2.15491504   0.00000000   0.00000000   0.00000000
-108.51766911   2.15495546   0.00000000   0.00000000   0.00000000
-108.41766911   2.15499610   0.00000000   0.00000000   0.00000000
-108.31766911   2.15503697   0.00000000   0.00000000   0.00000000
-108.21766911   2.15507805   0.00000000   0.00000000   0.00000000
-108.11766911   2.15511936   0.00000000   0.00000000   0.00000000
-108.01766911   2.15516088   0.00000000   0.00000000   0.00000000
-107.91766911   2.15520264   0.00000000   0.00000000   0.00000000
-107.81766911   2.15524461   0.00000000   0.00000000   0.00000000
-107.71766911   2.15528681   0.00000000   0.00000000   0.00000000
-107.61766911   2.15532924   0.00000000   0.00000000   0.00000000
-107.51766911   2.15537190   0.00000000   0.00000000   0.00000000
-107.41766911   2.15541479   0.00000000   0.00000000   0.00000000
-107.31766911   2.15545790   0.00000000   0.00000000   0.00000000
-107.21766911   2.15550125   0.00000000   0.00000000   0.00000000
-107.11766911   2.15554482   0.00000000   0.00000000   0.00000000
-107.01766911   2.15558863   0.00000000   0.00000000   0.00000000
-106.91766911   2.15563268   0.00000000   0.00000000   0.00000000
-106.81766911   2.15567696   0.00000000   0.00000000   0.00000000
-106.71766911   2.15572147   0.00000000   0.00000000   0.00000000
-106.61766911   2.15576622   0.00000000   0.00000000   0.00000000
-106.51766911   2.15581121   0.00000000   0.00000000   0.00000000
-106.41766911   2.15585644   0.00000000   0.00000000   0.00000000
-106.31766911   2.15590191   0.00000000   0.00000000   0.00000000
-106.21766911   2.15594762   0.00000000   0.00000000   0.00000000
-106.11766911   2.15599357   0.00000000   0.00000000   0.00000000
-106.01766911   2.15603977   0.00000000   0.00000000   0.00000000
-105.91766911   2.15608621   0.00000000   0.00000000   0.00000000
-105.81766911   2.15613289   0.00000000   0.00000000   0.00000000
-105.71766911   2.15617982   0.00000000   0.00000000   0.00000000
-105.61766911   2.15622700   0.00000000   0.00000000   0.00000000
-105.51766911   2.15627443   0.00000000   0.00000000   0.00000000
-105.41766911   2.15632211   0.00000000   0.00000000   0.00000000
-105.31766911   2.15637003   0.00000000   0.00000000   0.00000000
-105.21766911   2.15641821   0.00000000   0.00000000   0.00000000
-105.11766911   2.15646664   0.00000000   0.00000000   0.00000000
-105.01766911   2.15651533   0.00000000   0.00000000   0.00000000
-104.91766911   2.15656427   0.00000000   0.00000000   0.00000000
-104.81766911   2.15661347   0.00000000   0.00000000   0.00000000
-104.71766911   2.15666292   0.00000000   0.00000000   0.00000000
-104.61766911   2.15671263   0.00000000   0.00000000   0.00000000
-104.51766911   2.15676260   0.00000000   0.00000000   0.00000000
