# intensity: 1.03373366619343
# background: 2.20480200589832e-08
#           Q (1/A)             dQ (1/A)                    R                   dR               theory              fresnel
     0.0483642315116 0.000750702739851845       0.951434579138     0.00501003519873    0.921919026616594   0.0191143816728452
     0.0497866914682 0.000750709007438337        0.94044560157     0.00496697431537    0.917251632883559   0.0174588113809885
     0.0512091499082 0.000750715456630211        0.92483593417     0.00490572657895     0.90912277619997   0.0151831784382885
     0.0526316067882    0.000750722087422        0.91507948482      0.0048673956524    0.899246201719001   0.0132119587449903
      0.054054062065 0.000750728899808085       0.891642996968     0.00477516962074    0.887384450252718   0.0115640165529596
     0.0554765156953 0.000750735893782693       0.876236096925     0.00471441470647    0.872854513352206   0.0101753325108287
     0.0568989676356 0.000750743069339895       0.854327123245     0.00462784251127     0.85473821915891  0.00899670487361082
     0.0583214178427 0.000750750426473612       0.832076973197     0.00453970038522    0.831855388405862   0.0079898397060628
     0.0597438662732 0.000750757965177608       0.797485049287     0.00440218205643     0.80282518229064  0.00712459427173125
     0.0611663128838 0.000750765685445495       0.755120376229     0.00423288370811    0.766341816436242  0.00637699937778108
     0.0625887576312 0.000750773587270732       0.713350487453     0.00406490300013    0.721828667414516  0.00572781835257586
      0.064011200472 0.000750781670646622       0.660982624188     0.00385260415179    0.670489795263497  0.00516148227312265
     0.0654336413629 0.000750789935566318       0.611077559878     0.00364824562759    0.616246668795882  0.00466529319731476
     0.0668560802606 0.000750798382022817        0.56406531003     0.00345358980774    0.565400134302012   0.0042288210484547
     0.0682785171218 0.000750807010008963       0.524906916272     0.00328959354811    0.524281814247112  0.00384344225985224
      0.069700951903 0.000750815819517446       0.497644208161     0.00317426832942    0.496195826610763  0.00350198343488933
     0.0711233845611 0.000750824810540804        0.47861385523      0.0030931423649    0.480207769287707  0.00319844365649477
     0.0725458150526  0.00075083398307142       0.474897210464      0.0030772339742    0.472532867487652  0.00292777629652559
     0.0739682433342 0.000750843337101525       0.465759918032     0.00303803317951    0.468823017173306  0.00268571625848922
     0.0753906693627 0.000750852872623196       0.468748114267     0.00305086561273    0.465634188568454  0.00246864221483761
     0.0768130930946 0.000750862589628355       0.459408054463     0.00301070035281    0.460784025163513  0.00227346601601284
     0.0782355144866 0.000750872488108774       0.451730687084     0.00297757578127    0.453117685240323  0.00209754335636902
     0.0796579334955  0.00075088256805607        0.44262088991     0.00293813751632    0.442153458291404   0.0019386011875163
     0.0810803500778 0.000750892829461706       0.427630839031     0.00287291585697    0.427807210372118  0.00179467841352162
     0.0825027641903 0.000750903272316994       0.407801406942     0.00278596845389    0.410225218930453  0.00166407718513014
     0.0839251757896 0.000750913896613089        0.38491694649     0.00268458712938    0.389698162180286  0.00154532270208968
     0.0853475848324 0.000750924702340998        0.36495233615     0.00259513435406    0.366623512021535  0.00143712988268688
     0.0867699912754  0.00075093568949157       0.339069270754     0.00247758842129    0.341491503329286  0.00133837560541146
     0.0881923950752 0.000750946858055505       0.315984395044     0.00237105595035    0.314877900421569  0.00124807549426507
     0.0896147961885 0.000750958208023346        0.29176402206     0.00225731092922    0.287432586404883  0.00116536442656759
      0.091037194572 0.000750969739385486       0.260541415925     0.00210718175422    0.259857400443698  0.00108948010425041
     0.0924595901823 0.000750981452132163       0.233198425444     0.00197181075627    0.232870756555899   0.0010197491570116
     0.0938819829761 0.000750993346253465       0.203718442648     0.00182081600318    0.207160861262977 0.000955575346488766
     0.0953043729102 0.000751005421739325       0.179902428357     0.00169407309675    0.183333422573044 0.000896429520733867
     0.0967267599411 0.000751017678579521       0.159465870211      0.0015810856865    0.161862593729294 0.000841841032217189
     0.0981491440255 0.000751030116763682       0.139745756765     0.00146746640219     0.14305444305586 0.000791390383868745
     0.0995715251202 0.000751042736281284       0.126108664385     0.00138566532441    0.127030041201002 0.000744702909166089
      0.100993903182 0.000751055537121649       0.112524602447     0.00130099949817    0.113730919854077 0.000701443325688292
      0.102416278167 0.000751068519273941       0.102319996657     0.00123490813755    0.102944678799215 0.000661311028842525
      0.103838650032 0.000751081682727178      0.0923451938816     0.00116785769893   0.0943445881245427 0.000624036014609462
      0.105261018734 0.000751095027470228       0.086452774134     0.00112693280748   0.0875352468579539 0.000589375338568829
       0.10668338423 0.000751108553491803      0.0807360861031      0.0010861680282   0.0820968384155898 0.000557110033250929
      0.108105746476 0.000751122260780457      0.0782499283608     0.00106807991715   0.0776225740108861  0.00052704241832342
      0.109528105429 0.000751136149324599       0.074804005069     0.00104262552508   0.0737465266567169  0.00049899374825081
      0.110950461045 0.000751150219112476      0.0717636165127     0.00101976905544   0.0701613802657598 0.000472802150801285
      0.112372813282 0.000751164470132202      0.0692369052886     0.00100047071944    0.066627198391629 0.000448320816521084
      0.113795162096  0.00075117890237172      0.0658044998135    0.000973787182507   0.0629730894697786 0.000425416405634628
      0.115217507443  0.00075119351581882      0.0610469014476    0.000935831757317   0.0590937827565577 0.000403967643323112
      0.116639849281 0.000751208310461158      0.0568029804151    0.000900911670889    0.054942884466193  0.00038386407887568
      0.118062187565  0.00075122328628621       0.051153205622    0.000852651373305   0.0505241827204844 0.000365004987688937
      0.119484522253 0.000751238443281329      0.0459089655654    0.000805749994439   0.0458819677084542 0.000347298397717663
      0.120906853302 0.000751253781433706      0.0424490783547    0.000773512018533   0.0410910120716588 0.000330660225056861
      0.122329180667  0.00075126930073036      0.0366782244134    0.000717022413013   0.0362466418246156 0.000315013504985532
      0.123751504306 0.000751285001158187       0.032705241141    0.000675774607553    0.031455211636695 0.000300287706801771
      0.125173824175 0.000751300882703912      0.0279482240383    0.000623256835424    0.026825253101836 0.000286418122525166
      0.126596140232 0.000751316945354128      0.0231236178092    0.000565581758074    0.022459557381738 0.000273345320484301
      0.128018452432 0.000751333189095245      0.0191641523513    0.000513885901012   0.0184484533158831 0.000261014656346383
      0.129440760732 0.000751349613913542         0.0141359001    0.000440271397973   0.0148645237077192 0.000249375834754836
      0.130863065089 0.000751366219795145      0.0120352606732    5.97466838036e-05   0.0117589521287124 0.000238382515928818
       0.13228536546 0.000751383006726032     0.00934358447845    4.93090836114e-05  0.00915960699944604 0.000227991962057943
      0.133707661802 0.000751399974692025       0.007159964344    4.06431350028e-05  0.00707085723447558 0.000218164719060525
       0.13512995407 0.000751417123678775      0.0055887953509    3.42157019178e-05   0.0054749901181522 0.000208864329811146
      0.136552242222 0.000751434453671812     0.00434438216249    2.89307750414e-05  0.00433498667260437 0.000200057075343177
      0.137974526215 0.000751451964656508     0.00361685846449    2.57148597532e-05   0.0035983204670404 0.000191711741108881
      0.139396806004 0.000751469656618054      0.0032326339746    2.39622827213e-05  0.00320139472599951 0.000183799405544312
      0.140819081547 0.000751487529541531     0.00306589923611    2.31866348511e-05  0.00307422428419653 0.000176293248574033
      0.142241352801 0.000751505583411852     0.00318062969614    2.37193714533e-05  0.00314499990211914 0.000169168378055657
      0.143663619722 0.000751523818213769     0.00337496823168    2.47063536734e-05  0.00334423334703048 0.000162401672240791
      0.145085882266 0.000751542233931882      0.0036949756928    2.61589950027e-05  0.00360826007435175 0.000155971636635099
      0.146508140391 0.000751560830550665     0.00397145575941    2.73928607322e-05  0.00388195980493721 0.000149858273803733
      0.147930394053 0.000751579608054414     0.00421400608699    2.84612866375e-05  0.00412063356601386  0.00014404296485709
      0.149352643209  0.00075159856642729     0.00432489280365    2.89462301701e-05  0.00429104207779799  0.00013850836140627
      0.150774887815 0.000751617705653286     0.00441551630015    2.93399338413e-05  0.00437166155648228 0.000133238287013279
      0.152197127829 0.000751637025716273     0.00440570235966    2.92971621979e-05  0.00435224894097727 0.000128217647176915
      0.153619363206 0.000751656526599929     0.00423975754483    2.85742069983e-05  0.00423283106725118 0.000123432347082546
      0.155041593904 0.000751676208287825     0.00402447267002    2.76282468751e-05  0.00402224418617322 0.000118869216312595
      0.156463819879  0.00075169607076335     0.00376295683488    2.64655617869e-05  0.00373635425171813 0.000114515939937113
      0.157886041087 0.000751716114009744     0.00337408957571    2.47042895404e-05  0.00339608687230459  0.00011036099533138
      0.159308257487 0.000751736338010139     0.00308011744466    2.33425864036e-05  0.00302539021552204 0.000106393594213251
      0.160730469033 0.000751756742747443     0.00261365787108    2.11158744366e-05  0.00264924522795892 0.000102603629455484
      0.162152675683 0.000751777328204473      0.0022931908026    1.95260552448e-05  0.00229182545720125  9.8981626164849e-05
      0.163574877394  0.00075179809436388     0.00195542091802     1.7781265055e-05  0.00197489355272372 9.55186967288738e-05
      0.164997074122 0.000751819041208152     0.00171939970045    1.65088742694e-05  0.00171650317363423 9.22064994272288e-05
      0.166419265824 0.000751840168719637     0.00153650353356    1.54844721767e-05  0.00153005396889998 8.90372003032556e-05
      0.167841452457 0.000751861476880536     0.00142038542022    1.48131868323e-05  0.00142372432271881 8.60034380227304e-05
      0.169263633977 0.000751882965672885     0.00142606290655    1.48464289689e-05  0.00140028294205898 8.30982914544554e-05
       0.17068581034 0.000751904635078568      0.0014925706036    1.52325652606e-05  0.00145725767327829 8.03152497358557e-05
      0.172107981505 0.000751926485079365     0.00161643442974    1.59373580224e-05  0.00158741980432773 7.76481846133564e-05
      0.173530147426 0.000751948515656829     0.00180153400168    1.69585580227e-05   0.0017795259970477 7.50913248899373e-05
      0.174952308062 0.000751970726792442     0.00205381716225    1.82992953111e-05  0.00201924897232222 7.26392327510543e-05
      0.176374463368  0.00075199311846747      0.0023343525766    1.97344470814e-05  0.00229022264403397 7.02867818799103e-05
      0.177796613302 0.000752015690663082     0.00260542551408    2.10763821058e-05  0.00257512752316167 6.80291371545612e-05
      0.179218757819 0.000752038443360243     0.00289958689434    2.24920938466e-05  0.00285674726758065 6.58617358467443e-05
      0.180640896878 0.000752061376539838     0.00321740446812    2.39825517742e-05  0.00311893628232286 6.37802701600419e-05
      0.182063030433 0.000752084490182517     0.00343099961467    2.49651513109e-05  0.00334745003722688 6.17806710441152e-05
      0.183485158443 0.000752107784268866     0.00358430526397    2.56621682408e-05  0.00353060306030988 5.98590931330182e-05
      0.184907280863 0.000752131258779252      0.0037512639166      2.641398538e-05  0.00365973319991071 5.80119007725946e-05
      0.186329397651 0.000752154913693944     0.00387658766861    2.69733282329e-05  0.00372946384659775 5.62356550043564e-05
      0.187751508763 0.000752178748993029     0.00385267463694    2.68668280435e-05   0.0037377676366585 5.45271014686675e-05
      0.189173614156  0.00075220276465646     0.00376766103801    2.64872359174e-05  0.00368584532446572 5.28831591312123e-05
      0.190595713786 0.000752226960664025     0.00367332014005    2.60639193999e-05  0.00357784175737985 5.13009097860113e-05
       0.19201780761 0.000752251336995379     0.00348570625226    2.52151940827e-05  0.00342042715322009 4.97775882657707e-05
      0.193439895585 0.000752275893630027     0.00333914599882    2.45448440255e-05   0.0032222761839898 4.83105733144164e-05
      0.194861977668 0.000752300630547327     0.00308701153477    2.33760521939e-05  0.00299347978763359 4.68973790680404e-05
      0.196284053814 0.000752325547726453     0.00285420755945    2.22766508554e-05  0.00274492526360265 4.55356471023871e-05
      0.197706123982 0.000752350645146498     0.00256368247262    2.08728404235e-05  0.00248767917008353 4.42231389958989e-05
      0.199128188127 0.000752375922786338     0.00231195354194    1.96222677466e-05  0.00223240497509191 4.29577293913823e-05
      0.200550246206 0.000752401380624735     0.00203928550175    1.82246477035e-05  0.00198884346388933 4.17373994944957e-05
      0.201972298176 0.000752427018640302      0.0018164982344    1.70414620999e-05  0.00176537881514848 4.05602309977457e-05
      0.203394343994 0.000752452836811504     0.00159668488852    1.58290040676e-05  0.00156870726383808 3.94244003907046e-05
      0.204816383616 0.000752478835116639     0.00142823927619    1.48627561179e-05  0.00140361871563696 3.83281736317444e-05
      0.206238416999 0.000752505013533874     0.00128250360926     1.3995115781e-05  0.00127289492160239  3.7269901152865e-05
      0.207660444099  0.00075253137204121      0.0011998195825    1.34864695972e-05  0.00117732125586487 3.62480131797666e-05
      0.209082464874 0.000752557910616538      0.0011205150117    1.29866515456e-05  0.00111580313513697 3.52610153387312e-05
       0.21050447928 0.000752584629237562     0.00109082085699    1.27957157118e-05  0.00108557301844181 3.43074845391296e-05
      0.211926487274 0.000752611527881857     0.00108626985584    1.27656916617e-05  0.00108246998304116 3.33860651030615e-05
      0.213348488811 0.000752638606526812     0.00109142915849     6.3819630991e-06  0.00110127126268837 3.24954651341832e-05
       0.21477048385 0.000752665865149744     0.00112026718402    6.87719049242e-06  0.00113605391338406 3.16344531000673e-05
      0.216192472347 0.000752693303727766     0.00116189757771    7.05034664085e-06  0.00118056490208537 3.08018546274027e-05
      0.217614454258 0.000752720922237841     0.00121623472667     7.2749655485e-06  0.00122857926311264 2.99965494818871e-05
       0.21903642954 0.000752748720656806     0.00125786512065    7.44612931396e-06  0.00127422833307688 2.92174687280319e-05
       0.22045839815 0.000752776698961349     0.00129284474508     7.5893713891e-06  0.00131228321313118 2.84635920569205e-05
      0.221880360044  0.00075280485712799     0.00133221135443    7.74968165455e-06  0.00133838225335972 2.77339452698385e-05
      0.223302315179 0.000752833195133124      0.0013433797814    7.79494488572e-06  0.00134919524777705 2.70275979062503e-05
      0.224724263513 0.000752861712953016     0.00132416013838    7.71661449338e-06  0.00134252093206164 2.63436610094487e-05
         0.226146205 0.000752890410563704      0.0013026424649     7.6287601863e-06  0.00131731808672826 2.56812850223568e-05
      0.227568139599 0.000752919287941181     0.00128050297122    7.53817077327e-06  0.00127367390020303 2.50396577964309e-05
      0.228990067266 0.000752948345061231     0.00119781443798    7.19851343166e-06  0.00121271611705464  2.4418002720863e-05
      0.230411987957 0.000752977581899491       0.001134456394    6.93603181628e-06  0.00113647779906362 2.38155769517556e-05
       0.23183390163 0.000753006998431492     0.00106001373391    6.62480067862e-06  0.00104772521130152 2.32316697406225e-05
      0.233255808241 0.000753036594632577     0.00094615309734    6.14183828876e-06 0.000949760390208258 2.26656008579791e-05
      0.234677707746 0.000753066370477943    0.000848486814714    5.71950179159e-06 0.000846210358561078 2.21167191012779e-05
      0.236099600102  0.00075309632594266    0.000743412765034     5.2542046191e-06 0.000740814754970885 2.15844008849802e-05
      0.237521485267 0.000753126461001672     0.00063814946533    4.77397584665e-06 0.000637222888923108 2.10680489077177e-05
      0.238943363196 0.000753156775629716    0.000536995583825    4.29479165684e-06  0.00053880998656172 2.05670908929093e-05
      0.240365233847 0.000753187269801442     0.00045000838202    3.86380973128e-06  0.00044852074178991 2.00809783935075e-05
      0.241787097175 0.000753217943491293    0.000363751142256    3.41238843721e-06 0.000368746338241222  1.9609185664764e-05
      0.243208953139 0.000753248796673652    0.000298697963644    3.04975269737e-06 0.000301238962802041 1.91512085924641e-05
      0.244630801693 0.000753279829322644    0.000242972083755    2.71741058142e-06 0.000247065621528679 1.87065636829319e-05
      0.246052642796  0.00075331104141236    0.000198736354524    2.43356797683e-06  0.00020660089865709 1.82747870999968e-05
      0.247474476404 0.000753342432916679    0.000174182577659    2.26554737987e-06 0.000179556294774046 1.78554337577704e-05
      0.248896302473 0.000753374003809332    0.000159767168989    2.16240641046e-06  0.00016504202536962 1.74480764570819e-05
      0.250318120961 0.000753405754063953    0.000153719294349    2.11814303233e-06 0.000161655746735162 1.70523050667955e-05
      0.251739931823 0.000753437683653959    0.000153051513857    2.11314362341e-06  0.00016759165022347  1.6667725749016e-05
      0.253161735017 0.000753469792552689     0.00017290379107    2.25593599085e-06 0.000180762761309873 1.62939602207619e-05
      0.254583530499 0.000753502080733295    0.000195486668809    2.41079482605e-06 0.000198929099153806 1.59306450559943e-05
      0.256005318226 0.000753534548168803    0.000217420690923    2.55480813452e-06 0.000219824573695674 1.55774310206962e-05
      0.257427098154 0.000753567194832071    0.000239514222915    2.69494330267e-06 0.000241276078176431 1.52339824425352e-05
      0.258848870241 0.000753600020695859    0.000256498017476     2.7995896412e-06  0.00026130911622252 1.48999766107036e-05
      0.260270634443 0.000753633025732736    0.000275266165154    2.91238863737e-06 0.000278235412902905 1.45751032071379e-05
      0.261692390717 0.000753666209915148    0.000288951611052    2.99306016794e-06 0.000290719222819961 1.42590637641172e-05
      0.263114139019 0.000753699573215374    0.000300311991392    3.05910247919e-06 0.000297820386232601 1.39515711495675e-05
      0.264535879306  0.00075373311560557     0.00029936304069    3.05328890917e-06 0.000299013523505101 1.36523490765599e-05
      0.265957611535 0.000753766837057748    0.000293953207578    3.02171931466e-06 0.000294184030161148 1.33611316372216e-05
      0.267379335663 0.000753800737543776    0.000283379565175    2.95978246281e-06 0.000283602681995303 1.30776628588826e-05
      0.268801051645  0.00075383481703533    0.000266019974526    2.85657438288e-06 0.000267881634350989  1.2801696281881e-05
       0.27022275944 0.000753869075504036    0.000248254848844    2.74849659603e-06 0.000247915366577332 1.25329945559524e-05
