#      z (A) rho (1e-6/A2) irho (1e-6/A2)
-36.82970070  20.07630937  -0.45715092
-36.72970070  20.07651580  -0.45712794
-36.62970070  20.07672732  -0.45710438
-36.52970070  20.07694404  -0.45708025
-36.42970070  20.07716608  -0.45705553
-36.32970070  20.07739355  -0.45703020
-36.22970070  20.07762657  -0.45700425
-36.12970070  20.07786526  -0.45697767
-36.02970070  20.07810974  -0.45695045
-35.92970070  20.07836014  -0.45692256
-35.82970070  20.07861657  -0.45689401
-35.72970070  20.07887918  -0.45686477
-35.62970070  20.07914809  -0.45683482
-35.52970070  20.07942342  -0.45680416
-35.42970070  20.07970533  -0.45677277
-35.32970070  20.07999394  -0.45674063
-35.22970070  20.08028940  -0.45670773
-35.12970070  20.08059185  -0.45667405
-35.02970070  20.08090143  -0.45663958
-34.92970070  20.08121828  -0.45660430
-34.82970070  20.08154257  -0.45656819
-34.72970070  20.08187444  -0.45653123
-34.62970070  20.08221404  -0.45649342
-34.52970070  20.08256154  -0.45645472
-34.42970070  20.08291709  -0.45641513
-34.32970070  20.08328086  -0.45637462
-34.22970070  20.08365301  -0.45633318
-34.12970070  20.08403370  -0.45629079
-34.02970070  20.08442312  -0.45624743
-33.92970070  20.08482143  -0.45620308
-33.82970070  20.08522881  -0.45615771
-33.72970070  20.08564543  -0.45611132
-33.62970070  20.08607148  -0.45606388
-33.52970070  20.08650715  -0.45601536
-33.42970070  20.08695262  -0.45596576
-33.32970070  20.08740808  -0.45591504
-33.22970070  20.08787372  -0.45586319
-33.12970070  20.08834975  -0.45581018
-33.02970070  20.08883635  -0.45575600
-32.92970070  20.08933374  -0.45570061
-32.82970070  20.08984211  -0.45564401
-32.72970070  20.09036168  -0.45558615
-32.62970070  20.09089265  -0.45552702
-32.52970070  20.09143525  -0.45546660
-32.42970070  20.09198968  -0.45540487
-32.32970070  20.09255618  -0.45534178
-32.22970070  20.09313495  -0.45527734
-32.12970070  20.09372624  -0.45521149
-32.02970070  20.09433027  -0.45514423
-31.92970070  20.09494727  -0.45507553
-31.82970070  20.09557748  -0.45500535
-31.72970070  20.09622114  -0.45493368
-31.62970070  20.09687850  -0.45486048
-31.52970070  20.09754980  -0.45478573
-31.42970070  20.09823529  -0.45470940
-31.32970070  20.09893522  -0.45463146
-31.22970070  20.09964986  -0.45455188
-31.12970070  20.10037946  -0.45447063
-31.02970070  20.10112429  -0.45438770
-30.92970070  20.10188461  -0.45430303
-30.82970070  20.10266069  -0.45421661
-30.72970070  20.10345282  -0.45412841
-30.62970070  20.10426126  -0.45403838
-30.52970070  20.10508629  -0.45394651
-30.42970070  20.10592822  -0.45385276
-30.32970070  20.10678731  -0.45375710
-30.22970070  20.10766386  -0.45365949
-30.12970070  20.10855818  -0.45355991
-30.02970070  20.10947055  -0.45345831
-29.92970070  20.11040129  -0.45335467
-29.82970070  20.11135069  -0.45324895
-29.72970070  20.11231907  -0.45314112
-29.62970070  20.11330674  -0.45303114
-29.52970070  20.11431402  -0.45291897
-29.42970070  20.11534123  -0.45280459
-29.32970070  20.11638870  -0.45268795
-29.22970070  20.11745675  -0.45256902
-29.12970070  20.11854571  -0.45244776
-29.02970070  20.11965593  -0.45232413
-28.92970070  20.12078774  -0.45219810
-28.82970070  20.12194148  -0.45206963
-28.72970070  20.12311751  -0.45193867
-28.62970070  20.12431617  -0.45180520
-28.52970070  20.12553782  -0.45166916
-28.42970070  20.12678281  -0.45153053
-28.32970070  20.12805151  -0.45138926
-28.22970070  20.12934428  -0.45124530
-28.12970070  20.13066149  -0.45109862
-28.02970070  20.13200352  -0.45094919
-27.92970070  20.13337075  -0.45079694
-27.82970070  20.13476354  -0.45064185
-27.72970070  20.13618230  -0.45048386
-27.62970070  20.13762739  -0.45032295
-27.52970070  20.13909923  -0.45015905
-27.42970070  20.14059819  -0.44999214
-27.32970070  20.14212469  -0.44982216
-27.22970070  20.14367912  -0.44964907
-27.12970070  20.14526189  -0.44947282
-27.02970070  20.14687341  -0.44929337
-26.92970070  20.14851409  -0.44911068
-26.82970070  20.15018434  -0.44892469
-26.72970070  20.15188460  -0.44873536
-26.62970070  20.15361528  -0.44854264
-26.52970070  20.15537682  -0.44834649
-26.42970070  20.15716963  -0.44814685
-26.32970070  20.15899416  -0.44794368
-26.22970070  20.16085085  -0.44773694
-26.12970070  20.16274013  -0.44752656
-26.02970070  20.16466245  -0.44731250
-25.92970070  20.16661826  -0.44709471
-25.82970070  20.16860801  -0.44687315
-25.72970070  20.17063216  -0.44664775
-25.62970070  20.17269115  -0.44641848
-25.52970070  20.17478547  -0.44618527
-25.42970070  20.17691555  -0.44594807
-25.32970070  20.17908189  -0.44570685
-25.22970070  20.18128494  -0.44546153
-25.12970070  20.18352518  -0.44521207
-25.02970070  20.18580308  -0.44495842
-24.92970070  20.18811913  -0.44470052
-24.82970070  20.19047381  -0.44443832
-24.72970070  20.19286760  -0.44417176
-24.62970070  20.19530100  -0.44390079
-24.52970070  20.19777448  -0.44362536
-24.42970070  20.20028856  -0.44334541
-24.32970070  20.20284372  -0.44306088
-24.22970070  20.20544046  -0.44277173
-24.12970070  20.20807928  -0.44247789
-24.02970070  20.21076069  -0.44217930
-23.92970070  20.21348520  -0.44187592
-23.82970070  20.21625331  -0.44156768
-23.72970070  20.21906553  -0.44125453
-23.62970070  20.22192239  -0.44093641
-23.52970070  20.22482438  -0.44061326
-23.42970070  20.22777204  -0.44028503
-23.32970070  20.23076588  -0.43995165
-23.22970070  20.23380643  -0.43961308
-23.12970070  20.23689420  -0.43926924
-23.02970070  20.24002972  -0.43892009
-22.92970070  20.24321352  -0.43856557
-22.82970070  20.24644613  -0.43820560
-22.72970070  20.24972808  -0.43784015
-22.62970070  20.25305990  -0.43746914
-22.52970070  20.25644213  -0.43709251
-22.42970070  20.25987529  -0.43671022
-22.32970070  20.26335993  -0.43632219
-22.22970070  20.26689658  -0.43592837
-22.12970070  20.27048579  -0.43552870
-22.02970070  20.27412808  -0.43512312
-21.92970070  20.27782400  -0.43471157
-21.82970070  20.28157409  -0.43429398
-21.72970070  20.28537889  -0.43387030
-21.62970070  20.28923895  -0.43344047
-21.52970070  20.29315481  -0.43300443
-21.42970070  20.29712700  -0.43256211
-21.32970070  20.30115608  -0.43211346
-21.22970070  20.30524258  -0.43165841
-21.12970070  20.30938706  -0.43119691
-21.02970070  20.31359004  -0.43072890
-20.92970070  20.31785209  -0.43025430
-20.82970070  20.32217373  -0.42977307
-20.72970070  20.32655551  -0.42928514
-20.62970070  20.33099798  -0.42879046
-20.52970070  20.33550168  -0.42828896
-20.42970070  20.34006714  -0.42778058
-20.32970070  20.34469491  -0.42726526
-20.22970070  20.34938553  -0.42674294
-20.12970070  20.35413953  -0.42621357
-20.02970070  20.35895745  -0.42567708
-19.92970070  20.36383983  -0.42513341
-19.82970070  20.36878719  -0.42458250
-19.72970070  20.37380009  -0.42402430
-19.62970070  20.37887903  -0.42345874
-19.52970070  20.38402456  -0.42288577
-19.42970070  20.38923720  -0.42230532
-19.32970070  20.39451747  -0.42171734
-19.22970070  20.39986590  -0.42112178
-19.12970070  20.40528301  -0.42051856
-19.02970070  20.41076931  -0.41990765
-18.92970070  20.41632533  -0.41928896
-18.82970070  20.42195156  -0.41866246
-18.72970070  20.42764853  -0.41802809
-18.62970070  20.43341674  -0.41738578
-18.52970070  20.43925669  -0.41673548
-18.42970070  20.44516889  -0.41607713
-18.32970070  20.45115382  -0.41541069
-18.22970070  20.45721199  -0.41473609
-18.12970070  20.46334388  -0.41405328
-18.02970070  20.46954997  -0.41336221
-17.92970070  20.47583076  -0.41266283
-17.82970070  20.48218670  -0.41195507
-17.72970070  20.48861829  -0.41123889
-17.62970070  20.49512598  -0.41051424
-17.52970070  20.50171024  -0.40978106
-17.42970070  20.50837153  -0.40903930
-17.32970070  20.51511031  -0.40828891
-17.22970070  20.52192701  -0.40752985
-17.12970070  20.52882209  -0.40676206
-17.02970070  20.53579599  -0.40598549
-16.92970070  20.54284913  -0.40520010
-16.82970070  20.54998195  -0.40440583
-16.72970070  20.55719486  -0.40360265
-16.62970070  20.56448828  -0.40279050
-16.52970070  20.57186262  -0.40196935
-16.42970070  20.57931829  -0.40113913
-16.32970070  20.58685567  -0.40029982
-16.22970070  20.59447517  -0.39945136
-16.12970070  20.60217716  -0.39859372
-16.02970070  20.60996202  -0.39772684
-15.92970070  20.61783012  -0.39685070
-15.82970070  20.62578183  -0.39596525
-15.72970070  20.63381749  -0.39507046
-15.62970070  20.64193745  -0.39416627
-15.52970070  20.65014206  -0.39325266
-15.42970070  20.65843165  -0.39232958
-15.32970070  20.66680654  -0.39139701
-15.22970070  20.67526705  -0.39045490
-15.12970070  20.68381348  -0.38950323
-15.02970070  20.69244615  -0.38854195
-14.92970070  20.70116533  -0.38757104
-14.82970070  20.70997131  -0.38659046
-14.72970070  20.71886436  -0.38560019
-14.62970070  20.72784476  -0.38460019
-14.52970070  20.73691275  -0.38359044
-14.42970070  20.74606858  -0.38257091
-14.32970070  20.75531249  -0.38154156
-14.22970070  20.76464472  -0.38050239
-14.12970070  20.77406547  -0.37945336
-14.02970070  20.78357495  -0.37839444
-13.92970070  20.79317337  -0.37732562
-13.82970070  20.80286092  -0.37624688
-13.72970070  20.81263777  -0.37515820
-13.62970070  20.82250408  -0.37405955
-13.52970070  20.83246003  -0.37295092
-13.42970070  20.84250576  -0.37183229
-13.32970070  20.85264140  -0.37070365
-13.22970070  20.86286708  -0.36956499
-13.12970070  20.87318291  -0.36841628
-13.02970070  20.88358901  -0.36725753
-12.92970070  20.89408545  -0.36608871
-12.82970070  20.90467234  -0.36490983
-12.72970070  20.91534973  -0.36372086
-12.62970070  20.92611768  -0.36252181
-12.52970070  20.93697625  -0.36131267
-12.42970070  20.94792547  -0.36009344
-12.32970070  20.95896536  -0.35886411
-12.22970070  20.97009594  -0.35762468
-12.12970070  20.98131720  -0.35637515
-12.02970070  20.99262914  -0.35511553
-11.92970070  21.00403173  -0.35384581
-11.82970070  21.01552493  -0.35256600
-11.72970070  21.02710870  -0.35127611
-11.62970070  21.03878297  -0.34997614
-11.52970070  21.05054767  -0.34866610
-11.42970070  21.06240272  -0.34734600
-11.32970070  21.07434802  -0.34601585
-11.22970070  21.08638345  -0.34467566
-11.12970070  21.09850889  -0.34332545
-11.02970070  21.11072420  -0.34196523
-10.92970070  21.12302924  -0.34059503
-10.82970070  21.13542384  -0.33921484
-10.72970070  21.14790781  -0.33782471
-10.62970070  21.16048099  -0.33642464
-10.52970070  21.17314315  -0.33501467
-10.42970070  21.18589408  -0.33359481
-10.32970070  21.19873356  -0.33216509
-10.22970070  21.21166134  -0.33072553
-10.12970070  21.22467717  -0.32927618
-10.02970070  21.23778077  -0.32781704
 -9.92970070  21.25097187  -0.32634817
 -9.82970070  21.26425015  -0.32486959
 -9.72970070  21.27761533  -0.32338133
 -9.62970070  21.29106706  -0.32188343
 -9.52970070  21.30460502  -0.32037593
 -9.42970070  21.31822885  -0.31885887
 -9.32970070  21.33193818  -0.31733229
 -9.22970070  21.34573265  -0.31579623
 -9.12970070  21.35961185  -0.31425073
 -9.02970070  21.37357538  -0.31269584
 -8.92970070  21.38762282  -0.31113161
 -8.82970070  21.40175373  -0.30955808
 -8.72970070  21.41596768  -0.30797531
 -8.62970070  21.43026419  -0.30638335
 -8.52970070  21.44464280  -0.30478224
 -8.42970070  21.45910302  -0.30317204
 -8.32970070  21.47364434  -0.30155282
 -8.22970070  21.48826624  -0.29992462
 -8.12970070  21.50296821  -0.29828750
 -8.02970070  21.51774970  -0.29664153
 -7.92970070  21.53261015  -0.29498677
 -7.82970070  21.54754899  -0.29332328
 -7.72970070  21.56256565  -0.29165112
 -7.62970070  21.57765951  -0.28997036
 -7.52970070  21.59282998  -0.28828108
 -7.42970070  21.60807643  -0.28658333
 -7.32970070  21.62339823  -0.28487720
 -7.22970070  21.63879472  -0.28316275
 -7.12970070  21.65426524  -0.28144005
 -7.02970070  21.66980913  -0.27970918
 -6.92970070  21.68542568  -0.27797023
 -6.82970070  21.70111420  -0.27622326
 -6.72970070  21.71687398  -0.27446835
 -6.62970070  21.73270428  -0.27270559
 -6.52970070  21.74860437  -0.27093506
 -6.42970070  21.76457350  -0.26915684
 -6.32970070  21.78061090  -0.26737102
 -6.22970070  21.79671580  -0.26557769
 -6.12970070  21.81288740  -0.26377692
 -6.02970070  21.82912490  -0.26196882
 -5.92970070  21.84542750  -0.26015347
 -5.82970070  21.86179437  -0.25833096
 -5.72970070  21.87822466  -0.25650139
 -5.62970070  21.89471754  -0.25466485
 -5.52970070  21.91127214  -0.25282144
 -5.42970070  21.92788759  -0.25097125
 -5.32970070  21.94456301  -0.24911438
 -5.22970070  21.96129749  -0.24725094
 -5.12970070  21.97809015  -0.24538102
 -5.02970070  21.99494006  -0.24350472
 -4.92970070  22.01184630  -0.24162216
 -4.82970070  22.02880793  -0.23973342
 -4.72970070  22.04582399  -0.23783862
 -4.62970070  22.06289354  -0.23593787
 -4.52970070  22.08001561  -0.23403127
 -4.42970070  22.09718921  -0.23211893
 -4.32970070  22.11441336  -0.23020096
 -4.22970070  22.13168706  -0.22827747
 -4.12970070  22.14900931  -0.22634858
 -4.02970070  22.16637909  -0.22441439
 -3.92970070  22.18379538  -0.22247503
 -3.82970070  22.20125713  -0.22053060
 -3.72970070  22.21876331  -0.21858123
 -3.62970070  22.23631287  -0.21662702
 -3.52970070  22.25390474  -0.21466811
 -3.42970070  22.27153786  -0.21270460
 -3.32970070  22.28921115  -0.21073661
 -3.22970070  22.30692353  -0.20876428
 -3.12970070  22.32467391  -0.20678771
 -3.02970070  22.34246118  -0.20480704
 -2.92970070  22.36028425  -0.20282238
 -2.82970070  22.37814200  -0.20083385
 -2.72970070  22.39603330  -0.19884160
 -2.62970070  22.41395704  -0.19684572
 -2.52970070  22.43191209  -0.19484637
 -2.42970070  22.44989729  -0.19284365
 -2.32970070  22.46791151  -0.19083771
 -2.22970070  22.48595360  -0.18882866
 -2.12970070  22.50402240  -0.18681663
 -2.02970070  22.52211675  -0.18480176
 -1.92970070  22.54023548  -0.18278418
 -1.82970070  22.55837743  -0.18076401
 -1.72970070  22.57654142  -0.17874139
 -1.62970070  22.59472626  -0.17671644
 -1.52970070  22.61293078  -0.17468931
 -1.42970070  22.63115379  -0.17266011
 -1.32970070  22.64939409  -0.17062899
 -1.22970070  22.66765049  -0.16859608
 -1.12970070  22.68592179  -0.16656150
 -1.02970070  22.70420679  -0.16452540
 -0.92970070  22.72250429  -0.16248791
 -0.82970070  22.74081308  -0.16044917
 -0.72970070  22.75913195  -0.15840930
 -0.62970070  22.77745969  -0.15636844
 -0.52970070  22.79579509  -0.15432673
 -0.42970070  22.81413694  -0.15228430
 -0.32970070  22.83248401  -0.15024129
 -0.22970070  22.85083511  -0.14819783
 -0.12970070  22.86918899  -0.14615406
 -0.02970070  22.88754446  -0.14411012
  0.07029930  22.90590029  -0.14206613
  0.17029930  22.92425526  -0.14002224
  0.27029930  22.94260816  -0.13797858
  0.37029930  22.96095777  -0.13593529
  0.47029930  22.97930287  -0.13389250
  0.57029930  22.99764225  -0.13185034
  0.67029930  23.01597469  -0.12980896
  0.77029930  23.03429897  -0.12776849
  0.87029930  23.05261390  -0.12572906
  0.97029930  23.07091825  -0.12369081
  1.07029930  23.08921082  -0.12165386
  1.17029930  23.10749041  -0.11961837
  1.27029930  23.12575580  -0.11758445
  1.37029930  23.14400581  -0.11555225
  1.47029930  23.16223923  -0.11352189
  1.57029930  23.18045488  -0.11149352
  1.67029930  23.19865155  -0.10946726
  1.77029930  23.21682807  -0.10744324
  1.87029930  23.23498325  -0.10542159
  1.97029930  23.25311592  -0.10340246
  2.07029930  23.27122490  -0.10138596
  2.17029930  23.28930901  -0.09937223
  2.27029930  23.30736711  -0.09736140
  2.37029930  23.32539802  -0.09535359
  2.47029930  23.34340060  -0.09334894
  2.57029930  23.36137370  -0.09134758
  2.67029930  23.37931617  -0.08934962
  2.77029930  23.39722688  -0.08735520
  2.87029930  23.41510470  -0.08536444
  2.97029930  23.43294851  -0.08337747
  3.07029930  23.45075718  -0.08139441
  3.17029930  23.46852961  -0.07941539
  3.27029930  23.48626469  -0.07744053
  3.37029930  23.50396133  -0.07546994
  3.47029930  23.52161845  -0.07350376
  3.57029930  23.53923495  -0.07154210
  3.67029930  23.55680977  -0.06958509
  3.77029930  23.57434185  -0.06763283
  3.87029930  23.59183012  -0.06568545
  3.97029930  23.60927354  -0.06374306
  4.07029930  23.62667107  -0.06180579
  4.17029930  23.64402168  -0.05987373
  4.27029930  23.66132434  -0.05794702
  4.37029930  23.67857805  -0.05602576
  4.47029930  23.69578180  -0.05411006
  4.57029930  23.71293460  -0.05220004
  4.67029930  23.73003547  -0.05029580
  4.77029930  23.74708342  -0.04839745
  4.87029930  23.76407750  -0.04650510
  4.97029930  23.78101676  -0.04461885
  5.07029930  23.79790024  -0.04273882
  5.17029930  23.81472702  -0.04086509
  5.27029930  23.83149618  -0.03899779
  5.37029930  23.84820680  -0.03713700
  5.47029930  23.86485798  -0.03528284
  5.57029930  23.88144883  -0.03343539
  5.67029930  23.89797848  -0.03159475
  5.77029930  23.91444605  -0.02976103
  5.87029930  23.93085070  -0.02793431
  5.97029930  23.94719158  -0.02611470
  6.07029930  23.96346785  -0.02430228
  6.17029930  23.97967871  -0.02249714
  6.27029930  23.99582332  -0.02069938
  6.37029930  24.01190092  -0.01890909
  6.47029930  24.02791070  -0.01712634
  6.57029930  24.04385189  -0.01535123
  6.67029930  24.05972374  -0.01358384
  6.77029930  24.07552551  -0.01182426
  6.87029930  24.09125645  -0.01007257
  6.97029930  24.10691584  -0.00832884
  7.07029930  24.12250298  -0.00659315
  7.17029930  24.13801717  -0.00486559
  7.27029930  24.15345772  -0.00314623
  7.37029930  24.16882397  -0.00143515
  7.47029930  24.18411526   0.00026759
  7.57029930  24.19933095   0.00196191
  7.67029930  24.21447040   0.00364775
  7.77029930  24.22953299   0.00532502
  7.87029930  24.24451814   0.00699367
  7.97029930  24.25942523   0.00865363
  8.07029930  24.27425370   0.01030483
  8.17029930  24.28900298   0.01194721
  8.27029930  24.30367252   0.01358072
  8.37029930  24.31826178   0.01520529
  8.47029930  24.33277025   0.01682085
  8.57029930  24.34719741   0.01842737
  8.67029930  24.36154276   0.02002478
  8.77029930  24.37580582   0.02161302
  8.87029930  24.38998614   0.02319205
  8.97029930  24.40408324   0.02476181
  9.07029930  24.41809669   0.02632225
  9.17029930  24.43202606   0.02787334
  9.27029930  24.44587093   0.02941501
  9.37029930  24.45963092   0.03094723
  9.47029930  24.47330563   0.03246996
  9.57029930  24.48689469   0.03398314
  9.67029930  24.50039774   0.03548675
  9.77029930  24.51381444   0.03698074
  9.87029930  24.52714446   0.03846508
  9.97029930  24.54038748   0.03993973
 10.07029930  24.55354319   0.04140466
 10.17029930  24.56661132   0.04285983
 10.27029930  24.57959158   0.04430521
 10.37029930  24.59248371   0.04574078
 10.47029930  24.60528748   0.04716650
 10.57029930  24.61800263   0.04858236
 10.67029930  24.63062897   0.04998831
 10.77029930  24.64316628   0.05138435
 10.87029930  24.65561437   0.05277045
 10.97029930  24.66797307   0.05414659
 11.07029930  24.68024221   0.05551275
 11.17029930  24.69242166   0.05686890
 11.27029930  24.70451128   0.05821505
 11.37029930  24.71651095   0.05955116
 11.47029930  24.72842058   0.06087724
 11.57029930  24.74024008   0.06219325
 11.67029930  24.75196938   0.06349921
 11.77029930  24.76360844   0.06479508
 11.87029930  24.77515721   0.06608088
 11.97029930  24.78661567   0.06735659
 12.07029930  24.79798384   0.06862220
 12.17029930  24.80926173   0.06987772
 12.27029930  24.82044937   0.07112314
 12.37029930  24.83154684   0.07235845
 12.47029930  24.84255420   0.07358367
 12.57029930  24.85347157   0.07479879
 12.67029930  24.86429908   0.07600381
 12.77029930  24.87503687   0.07719873
 12.87029930  24.88568513   0.07838358
 12.97029930  24.89624407   0.07955834
 13.07029930  24.90671393   0.08072302
 13.17029930  24.91709500   0.08187765
 13.27029930  24.92738758   0.08302221
 13.37029930  24.93759202   0.08415674
 13.47029930  24.94770873   0.08528123
 13.57029930  24.95773814   0.08639570
 13.67029930  24.96768076   0.08750017
 13.77029930  24.97753713   0.08859465
 13.87029930  24.98730786   0.08967915
 13.97029930  24.99699364   0.09075370
 14.07029930  25.00659521   0.09181830
 14.17029930  25.01611342   0.09287299
