#      z (A) rho (1e-6/A2) irho (1e-6/A2)
-36.20687738  20.07706882  -0.45744120
-36.10687738  20.07729976  -0.45742581
-36.00687738  20.07753649  -0.45741003
-35.90687738  20.07777915  -0.45739386
-35.80687738  20.07802787  -0.45737728
-35.70687738  20.07828277  -0.45736030
-35.60687738  20.07854401  -0.45734288
-35.50687738  20.07881170  -0.45732504
-35.40687738  20.07908600  -0.45730676
-35.30687738  20.07936705  -0.45728803
-35.20687738  20.07965500  -0.45726884
-35.10687738  20.07994999  -0.45724918
-35.00687738  20.08025218  -0.45722904
-34.90687738  20.08056172  -0.45720841
-34.80687738  20.08087876  -0.45718728
-34.70687738  20.08120347  -0.45716564
-34.60687738  20.08153602  -0.45714348
-34.50687738  20.08187655  -0.45712078
-34.40687738  20.08222525  -0.45709754
-34.30687738  20.08258229  -0.45707375
-34.20687738  20.08294784  -0.45704938
-34.10687738  20.08332207  -0.45702444
-34.00687738  20.08370516  -0.45699891
-33.90687738  20.08409731  -0.45697278
-33.80687738  20.08449869  -0.45694603
-33.70687738  20.08490950  -0.45691865
-33.60687738  20.08532992  -0.45689063
-33.50687738  20.08576016  -0.45686195
-33.40687738  20.08620041  -0.45683261
-33.30687738  20.08665087  -0.45680259
-33.20687738  20.08711175  -0.45677187
-33.10687738  20.08758326  -0.45674045
-33.00687738  20.08806561  -0.45670830
-32.90687738  20.08855901  -0.45667542
-32.80687738  20.08906369  -0.45664178
-32.70687738  20.08957986  -0.45660738
-32.60687738  20.09010775  -0.45657220
-32.50687738  20.09064760  -0.45653622
-32.40687738  20.09119962  -0.45649943
-32.30687738  20.09176407  -0.45646181
-32.20687738  20.09234118  -0.45642335
-32.10687738  20.09293118  -0.45638403
-32.00687738  20.09353434  -0.45634383
-31.90687738  20.09415090  -0.45630274
-31.80687738  20.09478111  -0.45626074
-31.70687738  20.09542524  -0.45621781
-31.60687738  20.09608354  -0.45617394
-31.50687738  20.09675628  -0.45612910
-31.40687738  20.09744373  -0.45608328
-31.30687738  20.09814616  -0.45603647
-31.20687738  20.09886385  -0.45598864
-31.10687738  20.09959709  -0.45593977
-31.00687738  20.10034616  -0.45588985
-30.90687738  20.10111134  -0.45583885
-30.80687738  20.10189293  -0.45578676
-30.70687738  20.10269122  -0.45573356
-30.60687738  20.10350653  -0.45567922
-30.50687738  20.10433914  -0.45562373
-30.40687738  20.10518938  -0.45556706
-30.30687738  20.10605756  -0.45550920
-30.20687738  20.10694398  -0.45545012
-30.10687738  20.10784898  -0.45538981
-30.00687738  20.10877289  -0.45532823
-29.90687738  20.10971602  -0.45526538
-29.80687738  20.11067871  -0.45520122
-29.70687738  20.11166131  -0.45513573
-29.60687738  20.11266416  -0.45506889
-29.50687738  20.11368760  -0.45500068
-29.40687738  20.11473198  -0.45493108
-29.30687738  20.11579766  -0.45486006
-29.20687738  20.11688499  -0.45478759
-29.10687738  20.11799436  -0.45471365
-29.00687738  20.11912611  -0.45463823
-28.90687738  20.12028062  -0.45456128
-28.80687738  20.12145828  -0.45448280
-28.70687738  20.12265946  -0.45440274
-28.60687738  20.12388454  -0.45432109
-28.50687738  20.12513393  -0.45423783
-28.40687738  20.12640800  -0.45415291
-28.30687738  20.12770717  -0.45406633
-28.20687738  20.12903183  -0.45397804
-28.10687738  20.13038239  -0.45388803
-28.00687738  20.13175927  -0.45379627
-27.90687738  20.13316287  -0.45370272
-27.80687738  20.13459363  -0.45360737
-27.70687738  20.13605196  -0.45351018
-27.60687738  20.13753830  -0.45341112
-27.50687738  20.13905308  -0.45331016
-27.40687738  20.14059673  -0.45320728
-27.30687738  20.14216971  -0.45310245
-27.20687738  20.14377245  -0.45299563
-27.10687738  20.14540541  -0.45288680
-27.00687738  20.14706904  -0.45277593
-26.90687738  20.14876380  -0.45266298
-26.80687738  20.15049017  -0.45254792
-26.70687738  20.15224859  -0.45243073
-26.60687738  20.15403956  -0.45231136
-26.50687738  20.15586354  -0.45218980
-26.40687738  20.15772102  -0.45206601
-26.30687738  20.15961247  -0.45193995
-26.20687738  20.16153840  -0.45181159
-26.10687738  20.16349930  -0.45168091
-26.00687738  20.16549565  -0.45154786
-25.90687738  20.16752797  -0.45141241
-25.80687738  20.16959676  -0.45127453
-25.70687738  20.17170253  -0.45113419
-25.60687738  20.17384579  -0.45099135
-25.50687738  20.17602706  -0.45084597
-25.40687738  20.17824687  -0.45069803
-25.30687738  20.18050574  -0.45054748
-25.20687738  20.18280419  -0.45039430
-25.10687738  20.18514276  -0.45023844
-25.00687738  20.18752200  -0.45007987
-24.90687738  20.18994243  -0.44991856
-24.80687738  20.19240460  -0.44975447
-24.70687738  20.19490907  -0.44958755
-24.60687738  20.19745638  -0.44941778
-24.50687738  20.20004709  -0.44924512
-24.40687738  20.20268175  -0.44906953
-24.30687738  20.20536094  -0.44889097
-24.20687738  20.20808520  -0.44870941
-24.10687738  20.21085512  -0.44852480
-24.00687738  20.21367126  -0.44833712
-23.90687738  20.21653420  -0.44814631
-23.80687738  20.21944452  -0.44795235
-23.70687738  20.22240280  -0.44775519
-23.60687738  20.22540961  -0.44755480
-23.50687738  20.22846555  -0.44735113
-23.40687738  20.23157121  -0.44714415
-23.30687738  20.23472718  -0.44693381
-23.20687738  20.23793406  -0.44672008
-23.10687738  20.24119243  -0.44650292
-23.00687738  20.24450291  -0.44628229
-22.90687738  20.24786609  -0.44605815
-22.80687738  20.25128258  -0.44583045
-22.70687738  20.25475298  -0.44559916
-22.60687738  20.25827791  -0.44536424
-22.50687738  20.26185797  -0.44512564
-22.40687738  20.26549378  -0.44488332
-22.30687738  20.26918595  -0.44463725
-22.20687738  20.27293510  -0.44438738
-22.10687738  20.27674185  -0.44413368
-22.00687738  20.28060681  -0.44387609
-21.90687738  20.28453060  -0.44361458
-21.80687738  20.28851386  -0.44334911
-21.70687738  20.29255720  -0.44307964
-21.60687738  20.29666124  -0.44280612
-21.50687738  20.30082662  -0.44252851
-21.40687738  20.30505395  -0.44224677
-21.30687738  20.30934387  -0.44196086
-21.20687738  20.31369700  -0.44167074
-21.10687738  20.31811398  -0.44137637
-21.00687738  20.32259542  -0.44107769
-20.90687738  20.32714196  -0.44077468
-20.80687738  20.33175423  -0.44046729
-20.70687738  20.33643286  -0.44015548
-20.60687738  20.34117847  -0.43983920
-20.50687738  20.34599170  -0.43951841
-20.40687738  20.35087317  -0.43919308
-20.30687738  20.35582351  -0.43886316
-20.20687738  20.36084335  -0.43852860
-20.10687738  20.36593331  -0.43818937
-20.00687738  20.37109402  -0.43784543
-19.90687738  20.37632610  -0.43749673
-19.80687738  20.38163017  -0.43714323
-19.70687738  20.38700687  -0.43678489
-19.60687738  20.39245680  -0.43642167
-19.50687738  20.39798059  -0.43605353
-19.40687738  20.40357885  -0.43568043
-19.30687738  20.40925219  -0.43530232
-19.20687738  20.41500124  -0.43491916
-19.10687738  20.42082659  -0.43453092
-19.00687738  20.42672886  -0.43413756
-18.90687738  20.43270866  -0.43373902
-18.80687738  20.43876657  -0.43333528
-18.70687738  20.44490322  -0.43292630
-18.60687738  20.45111918  -0.43251203
-18.50687738  20.45741505  -0.43209243
-18.40687738  20.46379143  -0.43166746
-18.30687738  20.47024889  -0.43123710
-18.20687738  20.47678802  -0.43080128
-18.10687738  20.48340941  -0.43035999
-18.00687738  20.49011362  -0.42991318
-17.90687738  20.49690122  -0.42946081
-17.80687738  20.50377278  -0.42900284
-17.70687738  20.51072886  -0.42853924
-17.60687738  20.51777001  -0.42806998
-17.50687738  20.52489679  -0.42759500
-17.40687738  20.53210975  -0.42711428
-17.30687738  20.53940942  -0.42662778
-17.20687738  20.54679634  -0.42613547
-17.10687738  20.55427103  -0.42563731
-17.00687738  20.56183404  -0.42513326
-16.90687738  20.56948586  -0.42462329
-16.80687738  20.57722701  -0.42410737
-16.70687738  20.58505800  -0.42358546
-16.60687738  20.59297933  -0.42305753
-16.50687738  20.60099149  -0.42252355
-16.40687738  20.60909496  -0.42198348
-16.30687738  20.61729022  -0.42143729
-16.20687738  20.62557774  -0.42088496
-16.10687738  20.63395799  -0.42032644
-16.00687738  20.64243143  -0.41976172
-15.90687738  20.65099849  -0.41919075
-15.80687738  20.65965962  -0.41861352
-15.70687738  20.66841525  -0.41802999
-15.60687738  20.67726580  -0.41744013
-15.50687738  20.68621170  -0.41684391
-15.40687738  20.69525334  -0.41624132
-15.30687738  20.70439113  -0.41563232
-15.20687738  20.71362544  -0.41501688
-15.10687738  20.72295667  -0.41439499
-15.00687738  20.73238518  -0.41376661
-14.90687738  20.74191132  -0.41313172
-14.80687738  20.75153546  -0.41249031
-14.70687738  20.76125793  -0.41184234
-14.60687738  20.77107907  -0.41118779
-14.50687738  20.78099918  -0.41052665
-14.40687738  20.79101859  -0.40985889
-14.30687738  20.80113758  -0.40918450
-14.20687738  20.81135646  -0.40850344
-14.10687738  20.82167549  -0.40781572
-14.00687738  20.83209495  -0.40712129
-13.90687738  20.84261508  -0.40642016
-13.80687738  20.85323613  -0.40571231
-13.70687738  20.86395834  -0.40499771
-13.60687738  20.87478192  -0.40427635
-13.50687738  20.88570709  -0.40354823
-13.40687738  20.89673403  -0.40281332
-13.30687738  20.90786293  -0.40207162
-13.20687738  20.91909397  -0.40132311
-13.10687738  20.93042731  -0.40056778
-13.00687738  20.94186308  -0.39980562
-12.90687738  20.95340143  -0.39903663
-12.80687738  20.96504247  -0.39826080
-12.70687738  20.97678631  -0.39747811
-12.60687738  20.98863305  -0.39668857
-12.50687738  21.00058277  -0.39589216
-12.40687738  21.01263554  -0.39508888
-12.30687738  21.02479140  -0.39427874
-12.20687738  21.03705041  -0.39346171
-12.10687738  21.04941258  -0.39263782
-12.00687738  21.06187793  -0.39180705
-11.90687738  21.07444646  -0.39096940
-11.80687738  21.08711815  -0.39012487
-11.70687738  21.09989296  -0.38927347
-11.60687738  21.11277087  -0.38841520
-11.50687738  21.12575180  -0.38755007
-11.40687738  21.13883569  -0.38667807
-11.30687738  21.15202244  -0.38579922
-11.20687738  21.16531195  -0.38491352
-11.10687738  21.17870410  -0.38402098
-11.00687738  21.19219876  -0.38312161
-10.90687738  21.20579577  -0.38221541
-10.80687738  21.21949499  -0.38130241
-10.70687738  21.23329621  -0.38038260
-10.60687738  21.24719926  -0.37945601
-10.50687738  21.26120392  -0.37852265
-10.40687738  21.27530997  -0.37758253
-10.30687738  21.28951715  -0.37663567
-10.20687738  21.30382522  -0.37568209
-10.10687738  21.31823391  -0.37472180
-10.00687738  21.33274292  -0.37375482
 -9.90687738  21.34735195  -0.37278118
 -9.80687738  21.36206068  -0.37180089
 -9.70687738  21.37686877  -0.37081398
 -9.60687738  21.39177587  -0.36982048
 -9.50687738  21.40678162  -0.36882039
 -9.40687738  21.42188563  -0.36781376
 -9.30687738  21.43708749  -0.36680061
 -9.20687738  21.45238680  -0.36578097
 -9.10687738  21.46778312  -0.36475485
 -9.00687738  21.48327599  -0.36372231
 -8.90687738  21.49886497  -0.36268336
 -8.80687738  21.51454956  -0.36163803
 -8.70687738  21.53032926  -0.36058637
 -8.60687738  21.54620358  -0.35952840
 -8.50687738  21.56217197  -0.35846416
 -8.40687738  21.57823389  -0.35739369
 -8.30687738  21.59438879  -0.35631702
 -8.20687738  21.61063607  -0.35523419
 -8.10687738  21.62697516  -0.35414525
 -8.00687738  21.64340543  -0.35305023
 -7.90687738  21.65992627  -0.35194917
 -7.80687738  21.67653704  -0.35084212
 -7.70687738  21.69323707  -0.34972912
 -7.60687738  21.71002569  -0.34861022
 -7.50687738  21.72690222  -0.34748545
 -7.40687738  21.74386595  -0.34635488
 -7.30687738  21.76091616  -0.34521854
 -7.20687738  21.77805212  -0.34407649
 -7.10687738  21.79527307  -0.34292877
 -7.00687738  21.81257825  -0.34177544
 -6.90687738  21.82996687  -0.34061655
 -6.80687738  21.84743814  -0.33945215
 -6.70687738  21.86499125  -0.33828229
 -6.60687738  21.88262537  -0.33710704
 -6.50687738  21.90033965  -0.33592644
 -6.40687738  21.91813324  -0.33474056
 -6.30687738  21.93600527  -0.33354945
 -6.20687738  21.95395486  -0.33235317
 -6.10687738  21.97198109  -0.33115179
 -6.00687738  21.99008305  -0.32994535
 -5.90687738  22.00825982  -0.32873393
 -5.80687738  22.02651045  -0.32751759
 -5.70687738  22.04483398  -0.32629639
 -5.60687738  22.06322945  -0.32507039
 -5.50687738  22.08169586  -0.32383967
 -5.40687738  22.10023222  -0.32260429
 -5.30687738  22.11883751  -0.32136431
 -5.20687738  22.13751071  -0.32011980
 -5.10687738  22.15625078  -0.31887084
 -5.00687738  22.17505666  -0.31761749
 -4.90687738  22.19392730  -0.31635983
 -4.80687738  22.21286162  -0.31509792
 -4.70687738  22.23185853  -0.31383184
 -4.60687738  22.25091692  -0.31256167
 -4.50687738  22.27003568  -0.31128747
 -4.40687738  22.28921369  -0.31000932
 -4.30687738  22.30844982  -0.30872730
 -4.20687738  22.32774290  -0.30744148
 -4.10687738  22.34709178  -0.30615194
 -4.00687738  22.36649530  -0.30485876
 -3.90687738  22.38595226  -0.30356202
 -3.80687738  22.40546148  -0.30226180
 -3.70687738  22.42502175  -0.30095818
 -3.60687738  22.44463187  -0.29965123
 -3.50687738  22.46429061  -0.29834104
 -3.40687738  22.48399673  -0.29702770
 -3.30687738  22.50374900  -0.29571127
 -3.20687738  22.52354616  -0.29439186
 -3.10687738  22.54338696  -0.29306954
 -3.00687738  22.56327012  -0.29174440
 -2.90687738  22.58319436  -0.29041651
 -2.80687738  22.60315841  -0.28908598
 -2.70687738  22.62316097  -0.28775288
 -2.60687738  22.64320073  -0.28641729
 -2.50687738  22.66327639  -0.28507932
 -2.40687738  22.68338663  -0.28373904
 -2.30687738  22.70353013  -0.28239655
 -2.20687738  22.72370555  -0.28105192
 -2.10687738  22.74391157  -0.27970526
 -2.00687738  22.76414683  -0.27835665
 -1.90687738  22.78441000  -0.27700618
 -1.80687738  22.80469970  -0.27565394
 -1.70687738  22.82501459  -0.27430002
 -1.60687738  22.84535331  -0.27294452
 -1.50687738  22.86571447  -0.27158752
 -1.40687738  22.88609670  -0.27022911
 -1.30687738  22.90649863  -0.26886939
 -1.20687738  22.92691887  -0.26750845
 -1.10687738  22.94735604  -0.26614638
 -1.00687738  22.96780875  -0.26478328
 -0.90687738  22.98827560  -0.26341924
 -0.80687738  23.00875519  -0.26205434
 -0.70687738  23.02924614  -0.26068869
 -0.60687738  23.04974703  -0.25932238
 -0.50687738  23.07025646  -0.25795549
 -0.40687738  23.09077303  -0.25658813
 -0.30687738  23.11129533  -0.25522039
 -0.20687738  23.13182196  -0.25385236
 -0.10687738  23.15235150  -0.25248414
 -0.00687738  23.17288255  -0.25111581
  0.09312262  23.19341370  -0.24974748
  0.19312262  23.21394353  -0.24837924
  0.29312262  23.23447064  -0.24701118
  0.39312262  23.25499362  -0.24564339
  0.49312262  23.27551106  -0.24427597
  0.59312262  23.29602156  -0.24290902
  0.69312262  23.31652371  -0.24154262
  0.79312262  23.33701610  -0.24017687
  0.89312262  23.35749734  -0.23881187
  0.99312262  23.37796603  -0.23744770
  1.09312262  23.39842076  -0.23608446
  1.19312262  23.41886015  -0.23472225
  1.29312262  23.43928281  -0.23336115
  1.39312262  23.45968734  -0.23200126
  1.49312262  23.48007236  -0.23064266
  1.59312262  23.50043650  -0.22928546
  1.69312262  23.52077838  -0.22792975
  1.79312262  23.54109663  -0.22657561
  1.89312262  23.56138988  -0.22522313
  1.99312262  23.58165678  -0.22387241
  2.09312262  23.60189596  -0.22252354
  2.19312262  23.62210608  -0.22117660
  2.29312262  23.64228579  -0.21983170
  2.39312262  23.66243376  -0.21848890
  2.49312262  23.68254865  -0.21714831
  2.59312262  23.70262915  -0.21581002
  2.69312262  23.72267392  -0.21447410
  2.79312262  23.74268168  -0.21314065
  2.89312262  23.76265110  -0.21180976
  2.99312262  23.78258090  -0.21048151
  3.09312262  23.80246978  -0.20915598
  3.19312262  23.82231648  -0.20783327
  3.29312262  23.84211972  -0.20651345
  3.39312262  23.86187824  -0.20519661
  3.49312262  23.88159078  -0.20388284
  3.59312262  23.90125611  -0.20257221
  3.69312262  23.92087299  -0.20126481
  3.79312262  23.94044019  -0.19996073
  3.89312262  23.95995650  -0.19866003
  3.99312262  23.97942073  -0.19736281
  4.09312262  23.99883166  -0.19606913
  4.19312262  24.01818813  -0.19477909
  4.29312262  24.03748896  -0.19349276
  4.39312262  24.05673298  -0.19221021
  4.49312262  24.07591905  -0.19093152
  4.59312262  24.09504603  -0.18965677
  4.69312262  24.11411279  -0.18838604
  4.79312262  24.13311822  -0.18711939
  4.89312262  24.15206121  -0.18585691
  4.99312262  24.17094068  -0.18459866
  5.09312262  24.18975554  -0.18334471
  5.19312262  24.20850472  -0.18209514
  5.29312262  24.22718718  -0.18085002
  5.39312262  24.24580187  -0.17960941
  5.49312262  24.26434777  -0.17837339
  5.59312262  24.28282386  -0.17714203
  5.69312262  24.30122914  -0.17591538
  5.79312262  24.31956263  -0.17469351
  5.89312262  24.33782335  -0.17347650
  5.99312262  24.35601033  -0.17226440
  6.09312262  24.37412264  -0.17105727
  6.19312262  24.39215934  -0.16985519
  6.29312262  24.41011952  -0.16865821
  6.39312262  24.42800227  -0.16746638
  6.49312262  24.44580671  -0.16627978
  6.59312262  24.46353195  -0.16509845
  6.69312262  24.48117714  -0.16392246
  6.79312262  24.49874144  -0.16275186
  6.89312262  24.51622402  -0.16158670
  6.99312262  24.53362406  -0.16042705
  7.09312262  24.55094077  -0.15927295
  7.19312262  24.56817335  -0.15812446
  7.29312262  24.58532104  -0.15698162
  7.39312262  24.60238309  -0.15584450
  7.49312262  24.61935877  -0.15471313
  7.59312262  24.63624734  -0.15358756
  7.69312262  24.65304810  -0.15246785
  7.79312262  24.66976036  -0.15135403
  7.89312262  24.68638345  -0.15024616
  7.99312262  24.70291670  -0.14914428
  8.09312262  24.71935948  -0.14804842
  8.19312262  24.73571116  -0.14695864
  8.29312262  24.75197112  -0.14587497
  8.39312262  24.76813877  -0.14479745
  8.49312262  24.78421353  -0.14372613
  8.59312262  24.80019484  -0.14266103
  8.69312262  24.81608216  -0.14160220
  8.79312262  24.83187494  -0.14054966
  8.89312262  24.84757268  -0.13950347
  8.99312262  24.86317488  -0.13846364
  9.09312262  24.87868106  -0.13743021
  9.19312262  24.89409075  -0.13640321
  9.29312262  24.90940350  -0.13538267
  9.39312262  24.92461888  -0.13436862
  9.49312262  24.93973647  -0.13336110
  9.59312262  24.95475588  -0.13236011
  9.69312262  24.96967672  -0.13136570
  9.79312262  24.98449863  -0.13037788
  9.89312262  24.99922125  -0.12939668
  9.99312262  25.01384426  -0.12842213
 10.09312262  25.02836733  -0.12745423
 10.19312262  25.04279016  -0.12649303
 10.29312262  25.05711248  -0.12553852
 10.39312262  25.07133402  -0.12459073
 10.49312262  25.08545453  -0.12364969
 10.59312262  25.09947379  -0.12271540
 10.69312262  25.11339157  -0.12178788
 10.79312262  25.12720768  -0.12086714
 10.89312262  25.14092195  -0.11995320
 10.99312262  25.15453422  -0.11904608
 11.09312262  25.16804436  -0.11814577
 11.19312262  25.18145223  -0.11725229
 11.29312262  25.19475774  -0.11636566
 11.39312262  25.20796082  -0.11548587
 11.49312262  25.22106140  -0.11461294
 11.59312262  25.23405944  -0.11374687
 11.69312262  25.24695494  -0.11288767
 11.79312262  25.25974791  -0.11203534
 11.89312262  25.27243838  -0.11118989
 11.99312262  25.28502641  -0.11035131
 12.09312262  25.29751209  -0.10951962
 12.19312262  25.30989554  -0.10869480
 12.29312262  25.32217691  -0.10787686
 12.39312262  25.33435638  -0.10706580
 12.49312262  25.34643417  -0.10626162
 12.59312262  25.35841054  -0.10546431
 12.69312262  25.37028579  -0.10467388
 12.79312262  25.38206025  -0.10389031
 12.89312262  25.39373432  -0.10311360
 12.99312262  25.40530843  -0.10234374
 13.09312262  25.41678310  -0.10158073
 13.19312262  25.42815887  -0.10082457
 13.29312262  25.43943638  -0.10007524
 13.39312262  25.45061633  -0.09933273
 13.49312262  25.46169949  -0.09859704
 13.59312262  25.47268675  -0.09786815
 13.69312262  25.48357906  -0.09714606
 13.79312262  25.49437751  -0.09643076
 13.89312262  25.50508326  -0.09572223
 13.99312262  25.51569765  -0.09502046
 14.09312262  25.52622213  -0.09432544
 14.19312262  25.53665830  -0.09363716
 14.29312262  25.54700794  -0.09295561
 14.39312262  25.55727301  -0.09228077
 14.49312262  25.56745566  -0.09161263
 14.59312262  25.57755828  -0.09095118
 14.69312262  25.58758349  -0.09029641
 14.79312262  25.59753417  -0.08964830
