#      z (A) rho (1e-6/A2) irho (1e-6/A2)
-59.21056361  20.08608617   0.11048321
-59.11056361  20.08637785   0.11065861
-59.01056361  20.08667399   0.11083669
-58.91056361  20.08697465   0.11101748
-58.81056361  20.08727989   0.11120104
-58.71056361  20.08758977   0.11138738
-58.61056361  20.08790436   0.11157655
-58.51056361  20.08822372   0.11176860
-58.41056361  20.08854791   0.11196354
-58.31056361  20.08887700   0.11216144
-58.21056361  20.08921105   0.11236232
-58.11056361  20.08955014   0.11256622
-58.01056361  20.08989431   0.11277319
-57.91056361  20.09024366   0.11298326
-57.81056361  20.09059823   0.11319648
-57.71056361  20.09095810   0.11341288
-57.61056361  20.09132335   0.11363252
-57.51056361  20.09169404   0.11385543
-57.41056361  20.09207024   0.11408165
-57.31056361  20.09245203   0.11431123
-57.21056361  20.09283947   0.11454422
-57.11056361  20.09323265   0.11478065
-57.01056361  20.09363163   0.11502057
-56.91056361  20.09403650   0.11526404
-56.81056361  20.09444733   0.11551108
-56.71056361  20.09486419   0.11576175
-56.61056361  20.09528716   0.11601610
-56.51056361  20.09571632   0.11627418
-56.41056361  20.09615176   0.11653602
-56.31056361  20.09659355   0.11680168
-56.21056361  20.09704177   0.11707122
-56.11056361  20.09749650   0.11734466
-56.01056361  20.09795784   0.11762208
-55.91056361  20.09842585   0.11790351
-55.81056361  20.09890063   0.11818902
-55.71056361  20.09938226   0.11847864
-55.61056361  20.09987083   0.11877243
-55.51056361  20.10036642   0.11907045
-55.41056361  20.10086913   0.11937275
-55.31056361  20.10137903   0.11967937
-55.21056361  20.10189623   0.11999038
-55.11056361  20.10242081   0.12030584
-55.01056361  20.10295287   0.12062578
-54.91056361  20.10349249   0.12095028
-54.81056361  20.10403978   0.12127938
-54.71056361  20.10459481   0.12161314
-54.61056361  20.10515770   0.12195163
-54.51056361  20.10572854   0.12229489
-54.41056361  20.10630742   0.12264299
-54.31056361  20.10689444   0.12299599
-54.21056361  20.10748970   0.12335395
-54.11056361  20.10809331   0.12371692
-54.01056361  20.10870536   0.12408496
-53.91056361  20.10932595   0.12445815
-53.81056361  20.10995519   0.12483654
-53.71056361  20.11059318   0.12522019
-53.61056361  20.11124004   0.12560916
-53.51056361  20.11189585   0.12600353
-53.41056361  20.11256074   0.12640335
-53.31056361  20.11323480   0.12680869
-53.21056361  20.11391816   0.12721962
-53.11056361  20.11461091   0.12763619
-53.01056361  20.11531317   0.12805849
-52.91056361  20.11602506   0.12848657
-52.81056361  20.11674668   0.12892051
-52.71056361  20.11747814   0.12936037
-52.61056361  20.11821958   0.12980622
-52.51056361  20.11897109   0.13025813
-52.41056361  20.11973281   0.13071618
-52.31056361  20.12050484   0.13118043
-52.21056361  20.12128731   0.13165096
-52.11056361  20.12208034   0.13212784
-52.01056361  20.12288404   0.13261114
-51.91056361  20.12369855   0.13310093
-51.81056361  20.12452399   0.13359730
-51.71056361  20.12536048   0.13410031
-51.61056361  20.12620815   0.13461004
-51.51056361  20.12706712   0.13512657
-51.41056361  20.12793752   0.13564998
-51.31056361  20.12881949   0.13618034
-51.21056361  20.12971316   0.13671774
-51.11056361  20.13061865   0.13726224
-51.01056361  20.13153609   0.13781394
-50.91056361  20.13246564   0.13837290
-50.81056361  20.13340740   0.13893923
-50.71056361  20.13436154   0.13951298
-50.61056361  20.13532817   0.14009426
-50.51056361  20.13630745   0.14068313
-50.41056361  20.13729951   0.14127969
-50.31056361  20.13830449   0.14188402
-50.21056361  20.13932253   0.14249621
-50.11056361  20.14035378   0.14311634
-50.01056361  20.14139838   0.14374450
-49.91056361  20.14245648   0.14438077
-49.81056361  20.14352822   0.14502525
-49.71056361  20.14461375   0.14567802
-49.61056361  20.14571323   0.14633918
-49.51056361  20.14682680   0.14700881
-49.41056361  20.14795461   0.14768700
-49.31056361  20.14909682   0.14837385
-49.21056361  20.15025358   0.14906946
-49.11056361  20.15142504   0.14977390
-49.01056361  20.15261137   0.15048728
-48.91056361  20.15381272   0.15120970
-48.81056361  20.15502924   0.15194124
-48.71056361  20.15626111   0.15268201
-48.61056361  20.15750847   0.15343210
-48.51056361  20.15877150   0.15419160
-48.41056361  20.16005036   0.15496063
-48.31056361  20.16134521   0.15573927
-48.21056361  20.16265621   0.15652762
-48.11056361  20.16398355   0.15732580
-48.01056361  20.16532738   0.15813389
-47.91056361  20.16668787   0.15895201
-47.81056361  20.16806520   0.15978024
-47.71056361  20.16945953   0.16061871
-47.61056361  20.17087105   0.16146751
-47.51056361  20.17229993   0.16232675
-47.41056361  20.17374634   0.16319653
-47.31056361  20.17521047   0.16407696
-47.21056361  20.17669248   0.16496815
-47.11056361  20.17819256   0.16587021
-47.01056361  20.17971090   0.16678324
-46.91056361  20.18124767   0.16770736
-46.81056361  20.18280306   0.16864267
-46.71056361  20.18437725   0.16958929
-46.61056361  20.18597043   0.17054733
-46.51056361  20.18758279   0.17151690
-46.41056361  20.18921452   0.17249812
-46.31056361  20.19086580   0.17349110
-46.21056361  20.19253683   0.17449595
-46.11056361  20.19422780   0.17551279
-46.01056361  20.19593891   0.17654175
-45.91056361  20.19767035   0.17758292
-45.81056361  20.19942231   0.17863644
-45.71056361  20.20119500   0.17970243
-45.61056361  20.20298861   0.18078100
-45.51056361  20.20480335   0.18187226
-45.41056361  20.20663941   0.18297636
-45.31056361  20.20849701   0.18409340
-45.21056361  20.21037633   0.18522351
-45.11056361  20.21227760   0.18636681
-45.01056361  20.21420101   0.18752342
-44.91056361  20.21614677   0.18869348
-44.81056361  20.21811509   0.18987711
-44.71056361  20.22010619   0.19107443
-44.61056361  20.22212027   0.19228557
-44.51056361  20.22415755   0.19351067
-44.41056361  20.22621825   0.19474984
-44.31056361  20.22830257   0.19600322
-44.21056361  20.23041073   0.19727093
-44.11056361  20.23254296   0.19855312
-44.01056361  20.23469947   0.19984991
-43.91056361  20.23688048   0.20116143
-43.81056361  20.23908621   0.20248783
-43.71056361  20.24131690   0.20382922
-43.61056361  20.24357275   0.20518575
-43.51056361  20.24585400   0.20655755
-43.41056361  20.24816088   0.20794476
-43.31056361  20.25049360   0.20934751
-43.21056361  20.25285241   0.21076595
-43.11056361  20.25523752   0.21220021
-43.01056361  20.25764918   0.21365043
-42.91056361  20.26008762   0.21511675
-42.81056361  20.26255306   0.21659931
-42.71056361  20.26504575   0.21809826
-42.61056361  20.26756592   0.21961373
-42.51056361  20.27011381   0.22114587
-42.41056361  20.27268965   0.22269482
-42.31056361  20.27529370   0.22426073
-42.21056361  20.27792618   0.22584374
-42.11056361  20.28058734   0.22744399
-42.01056361  20.28327742   0.22906164
-41.91056361  20.28599667   0.23069683
-41.81056361  20.28874534   0.23234970
-41.71056361  20.29152367   0.23402042
-41.61056361  20.29433190   0.23570911
-41.51056361  20.29717030   0.23741594
-41.41056361  20.30003910   0.23914106
-41.31056361  20.30293856   0.24088462
-41.21056361  20.30586893   0.24264676
-41.11056361  20.30883047   0.24442764
-41.01056361  20.31182343   0.24622742
-40.91056361  20.31484807   0.24804625
-40.81056361  20.31790464   0.24988427
-40.71056361  20.32099339   0.25174166
-40.61056361  20.32411460   0.25361856
-40.51056361  20.32726852   0.25551513
-40.41056361  20.33045541   0.25743152
-40.31056361  20.33367553   0.25936790
-40.21056361  20.33692914   0.26132442
-40.11056361  20.34021651   0.26330124
-40.01056361  20.34353791   0.26529852
-39.91056361  20.34689360   0.26731642
-39.81056361  20.35028385   0.26935510
-39.71056361  20.35370892   0.27141472
-39.61056361  20.35716908   0.27349545
-39.51056361  20.36066461   0.27559744
-39.41056361  20.36419577   0.27772086
-39.31056361  20.36776285   0.27986587
-39.21056361  20.37136609   0.28203264
-39.11056361  20.37500580   0.28422133
-39.01056361  20.37868222   0.28643210
-38.91056361  20.38239566   0.28866512
-38.81056361  20.38614637   0.29092057
-38.71056361  20.38993463   0.29319859
-38.61056361  20.39376073   0.29549936
-38.51056361  20.39762494   0.29782306
-38.41056361  20.40152754   0.30016984
-38.31056361  20.40546881   0.30253987
-38.21056361  20.40944904   0.30493333
-38.11056361  20.41346849   0.30735038
-38.01056361  20.41752747   0.30979119
-37.91056361  20.42162625   0.31225594
-37.81056361  20.42576511   0.31474479
-37.71056361  20.42994434   0.31725791
-37.61056361  20.43416422   0.31979549
-37.51056361  20.43842504   0.32235768
-37.41056361  20.44272709   0.32494466
-37.31056361  20.44707066   0.32755661
-37.21056361  20.45145603   0.33019370
-37.11056361  20.45588349   0.33285609
-37.01056361  20.46035333   0.33554397
-36.91056361  20.46486584   0.33825751
-36.81056361  20.46942131   0.34099689
-36.71056361  20.47402003   0.34376227
-36.61056361  20.47866230   0.34655384
-36.51056361  20.48334840   0.34937176
-36.41056361  20.48807862   0.35221622
-36.31056361  20.49285327   0.35508740
-36.21056361  20.49767264   0.35798546
-36.11056361  20.50253701   0.36091059
-36.01056361  20.50744668   0.36386296
-35.91056361  20.51240195   0.36684274
-35.81056361  20.51740311   0.36985013
-35.71056361  20.52245046   0.37288529
-35.61056361  20.52754429   0.37594840
-35.51056361  20.53268490   0.37903964
-35.41056361  20.53787259   0.38215919
-35.31056361  20.54310765   0.38530722
-35.21056361  20.54839038   0.38848392
-35.11056361  20.55372107   0.39168947
-35.01056361  20.55910003   0.39492404
-34.91056361  20.56452755   0.39818781
-34.81056361  20.57000393   0.40148096
-34.71056361  20.57552947   0.40480367
-34.61056361  20.58110446   0.40815612
-34.51056361  20.58672921   0.41153849
-34.41056361  20.59240401   0.41495096
-34.31056361  20.59812916   0.41839371
-34.21056361  20.60390496   0.42186691
-34.11056361  20.60973170   0.42537075
-34.01056361  20.61560970   0.42890540
-33.91056361  20.62153924   0.43247106
-33.81056361  20.62752062   0.43606788
-33.71056361  20.63355414   0.43969606
-33.61056361  20.63964010   0.44335578
-33.51056361  20.64577880   0.44704721
-33.41056361  20.65197054   0.45077053
-33.31056361  20.65821561   0.45452592
-33.21056361  20.66451431   0.45831356
-33.11056361  20.67086694   0.46213364
-33.01056361  20.67727379   0.46598632
-32.91056361  20.68373517   0.46987179
-32.81056361  20.69025137   0.47379022
-32.71056361  20.69682269   0.47774180
-32.61056361  20.70344942   0.48172670
-32.51056361  20.71013186   0.48574509
-32.41056361  20.71687030   0.48979717
-32.31056361  20.72366504   0.49388310
-32.21056361  20.73051637   0.49800306
-32.11056361  20.73742459   0.50215723
-32.01056361  20.74438999   0.50634579
-31.91056361  20.75141286   0.51056890
-31.81056361  20.75849350   0.51482675
-31.71056361  20.76563220   0.51911952
-31.61056361  20.77282925   0.52344737
-31.51056361  20.78008494   0.52781048
-31.41056361  20.78739955   0.53220904
-31.31056361  20.79477339   0.53664320
-31.21056361  20.80220673   0.54111314
-31.11056361  20.80969987   0.54561905
-31.01056361  20.81725310   0.55016108
-30.91056361  20.82486669   0.55473942
-30.81056361  20.83254093   0.55935423
-30.71056361  20.84027612   0.56400568
-30.61056361  20.84807253   0.56869395
-30.51056361  20.85593044   0.57341921
-30.41056361  20.86385014   0.57818162
-30.31056361  20.87183191   0.58298135
-30.21056361  20.87987603   0.58781858
-30.11056361  20.88798278   0.59269347
-30.01056361  20.89615243   0.59760619
-29.91056361  20.90438527   0.60255690
-29.81056361  20.91268156   0.60754577
-29.71056361  20.92104159   0.61257296
-29.61056361  20.92946562   0.61763864
-29.51056361  20.93795392   0.62274298
-29.41056361  20.94650678   0.62788613
-29.31056361  20.95512446   0.63306826
-29.21056361  20.96380722   0.63828953
-29.11056361  20.97255534   0.64355010
-29.01056361  20.98136907   0.64885012
-28.91056361  20.99024869   0.65418977
-28.81056361  20.99919446   0.65956919
-28.71056361  21.00820663   0.66498855
-28.61056361  21.01728547   0.67044799
-28.51056361  21.02643124   0.67594768
-28.41056361  21.03564419   0.68148777
-28.31056361  21.04492458   0.68706841
-28.21056361  21.05427266   0.69268976
-28.11056361  21.06368868   0.69835197
-28.01056361  21.07317290   0.70405518
-27.91056361  21.08272556   0.70979955
-27.81056361  21.09234692   0.71558523
-27.71056361  21.10203720   0.72141236
-27.61056361  21.11179667   0.72728109
-27.51056361  21.12162555   0.73319156
-27.41056361  21.13152410   0.73914393
-27.31056361  21.14149254   0.74513832
-27.21056361  21.15153112   0.75117489
-27.11056361  21.16164006   0.75725378
-27.01056361  21.17181960   0.76337511
-26.91056361  21.18206997   0.76953904
-26.81056361  21.19239140   0.77574570
-26.71056361  21.20278411   0.78199523
-26.61056361  21.21324833   0.78828775
-26.51056361  21.22378428   0.79462340
-26.41056361  21.23439217   0.80100233
-26.31056361  21.24507223   0.80742464
-26.21056361  21.25582466   0.81389048
-26.11056361  21.26664969   0.82039997
-26.01056361  21.27754752   0.82695324
-25.91056361  21.28851836   0.83355042
-25.81056361  21.29956242   0.84019162
-25.71056361  21.31067989   0.84687697
-25.61056361  21.32187099   0.85360659
-25.51056361  21.33313590   0.86038061
-25.41056361  21.34447483   0.86719913
-25.31056361  21.35588797   0.87406227
-25.21056361  21.36737550   0.88097015
-25.11056361  21.37893762   0.88792288
-25.01056361  21.39057451   0.89492058
-24.91056361  21.40228636   0.90196335
-24.81056361  21.41407334   0.90905130
-24.71056361  21.42593563   0.91618453
-24.61056361  21.43787341   0.92336316
-24.51056361  21.44988685   0.93058729
-24.41056361  21.46197612   0.93785702
-24.31056361  21.47414138   0.94517244
-24.21056361  21.48638280   0.95253366
-24.11056361  21.49870054   0.95994078
-24.01056361  21.51109475   0.96739388
-23.91056361  21.52356560   0.97489306
-23.81056361  21.53611322   0.98243842
-23.71056361  21.54873778   0.99003004
-23.61056361  21.56143942   0.99766800
-23.51056361  21.57421827   1.00535240
-23.41056361  21.58707449   1.01308332
-23.31056361  21.60000820   1.02086084
-23.21056361  21.61301953   1.02868505
-23.11056361  21.62610863   1.03655601
-23.01056361  21.63927561   1.04447380
-22.91056361  21.65252060   1.05243850
-22.81056361  21.66584371   1.06045019
-22.71056361  21.67924508   1.06850893
-22.61056361  21.69272480   1.07661478
-22.51056361  21.70628298   1.08476783
-22.41056361  21.71991975   1.09296812
-22.31056361  21.73363519   1.10121573
-22.21056361  21.74742941   1.10951071
-22.11056361  21.76130251   1.11785312
-22.01056361  21.77525457   1.12624301
-21.91056361  21.78928569   1.13468045
-21.81056361  21.80339596   1.14316547
-21.71056361  21.81758545   1.15169814
-21.61056361  21.83185424   1.16027850
-21.51056361  21.84620241   1.16890658
-21.41056361  21.86063003   1.17758245
-21.31056361  21.87513717   1.18630613
-21.21056361  21.88972388   1.19507767
-21.11056361  21.90439024   1.20389709
-21.01056361  21.91913630   1.21276444
-20.91056361  21.93396210   1.22167975
-20.81056361  21.94886771   1.23064305
-20.71056361  21.96385315   1.23965435
-20.61056361  21.97891848   1.24871370
-20.51056361  21.99406373   1.25782110
-20.41056361  22.00928894   1.26697658
-20.31056361  22.02459413   1.27618016
-20.21056361  22.03997933   1.28543185
-20.11056361  22.05544455   1.29473167
-20.01056361  22.07098983   1.30407962
-19.91056361  22.08661516   1.31347572
-19.81056361  22.10232057   1.32291996
-19.71056361  22.11810605   1.33241236
-19.61056361  22.13397160   1.34195290
-19.51056361  22.14991723   1.35154160
-19.41056361  22.16594292   1.36117845
-19.31056361  22.18204866   1.37086343
-19.21056361  22.19823444   1.38059654
-19.11056361  22.21450025   1.39037777
-19.01056361  22.23084604   1.40020711
-18.91056361  22.24727180   1.41008453
-18.81056361  22.26377749   1.42001002
-18.71056361  22.28036309   1.42998355
-18.61056361  22.29702853   1.44000510
-18.51056361  22.31377379   1.45007465
-18.41056361  22.33059880   1.46019216
-18.31056361  22.34750353   1.47035760
-18.21056361  22.36448790   1.48057093
-18.11056361  22.38155185   1.49083212
-18.01056361  22.39869533   1.50114113
-17.91056361  22.41591824   1.51149791
-17.81056361  22.43322053   1.52190242
-17.71056361  22.45060211   1.53235461
-17.61056361  22.46806290   1.54285443
-17.51056361  22.48560280   1.55340183
-17.41056361  22.50322172   1.56399674
-17.31056361  22.52091957   1.57463911
-17.21056361  22.53869623   1.58532888
-17.11056361  22.55655161   1.59606599
-17.01056361  22.57448559   1.60685036
-16.91056361  22.59249806   1.61768192
-16.81056361  22.61058889   1.62856061
-16.71056361  22.62875796   1.63948635
-16.61056361  22.64700514   1.65045906
-16.51056361  22.66533029   1.66147865
-16.41056361  22.68373328   1.67254505
-16.31056361  22.70221395   1.68365817
-16.21056361  22.72077217   1.69481792
-16.11056361  22.73940778   1.70602420
-16.01056361  22.75812062   1.71727693
-15.91056361  22.77691053   1.72857600
-15.81056361  22.79577735   1.73992132
-15.71056361  22.81472089   1.75131278
-15.61056361  22.83374099   1.76275027
-15.51056361  22.85283746   1.77423369
-15.41056361  22.87201012   1.78576293
-15.31056361  22.89125878   1.79733786
-15.21056361  22.91058324   1.80895838
-15.11056361  22.92998331   1.82062436
-15.01056361  22.94945878   1.83233568
-14.91056361  22.96900943   1.84409222
-14.81056361  22.98863507   1.85589384
-14.71056361  23.00833546   1.86774042
-14.61056361  23.02811039   1.87963182
-14.51056361  23.04795963   1.89156791
-14.41056361  23.06788294   1.90354854
-14.31056361  23.08788010   1.91557357
-14.21056361  23.10795085   1.92764286
-14.11056361  23.12809495   1.93975626
-14.01056361  23.14831216   1.95191362
-13.91056361  23.16860221   1.96411478
-13.81056361  23.18896485   1.97635959
-13.71056361  23.20939980   1.98864789
-13.61056361  23.22990681   2.00097952
-13.51056361  23.25048559   2.01335430
-13.41056361  23.27113587   2.02577209
-13.31056361  23.29185736   2.03823269
-13.21056361  23.31264978   2.05073595
-13.11056361  23.33351283   2.06328167
-13.01056361  23.35444622   2.07586970
-12.91056361  23.37544964   2.08849984
-12.81056361  23.39652278   2.10117190
-12.71056361  23.41766535   2.11388571
-12.61056361  23.43887701   2.12664107
-12.51056361  23.46015745   2.13943779
-12.41056361  23.48150634   2.15227568
-12.31056361  23.50292336   2.16515453
-12.21056361  23.52440817   2.17807414
-12.11056361  23.54596043   2.19103432
-12.01056361  23.56757980   2.20403485
-11.91056361  23.58926593   2.21707552
-11.81056361  23.61101846   2.23015613
-11.71056361  23.63283705   2.24327646
-11.61056361  23.65472133   2.25643629
-11.51056361  23.67667093   2.26963541
-11.41056361  23.69868549   2.28287358
-11.31056361  23.72076463   2.29615059
-11.21056361  23.74290797   2.30946620
-11.11056361  23.76511512   2.32282019
-11.01056361  23.78738571   2.33621232
-10.91056361  23.80971933   2.34964236
-10.81056361  23.83211559   2.36311006
-10.71056361  23.85457409   2.37661520
-10.61056361  23.87709443   2.39015751
-10.51056361  23.89967619   2.40373677
-10.41056361  23.92231897   2.41735271
-10.31056361  23.94502234   2.43100509
-10.21056361  23.96778588   2.44469365
-10.11056361  23.99060916   2.45841815
-10.01056361  24.01349176   2.47217830
 -9.91056361  24.03643324   2.48597387
 -9.81056361  24.05943316   2.49980458
 -9.71056361  24.08249108   2.51367016
 -9.61056361  24.10560655   2.52757035
 -9.51056361  24.12877912   2.54150488
 -9.41056361  24.15200833   2.55547347
 -9.31056361  24.17529373   2.56947584
 -9.21056361  24.19863484   2.58351173
 -9.11056361  24.22203121   2.59758083
 -9.01056361  24.24548237   2.61168289
 -8.91056361  24.26898783   2.62581760
 -8.81056361  24.29254712   2.63998467
 -8.71056361  24.31615976   2.65418383
 -8.61056361  24.33982526   2.66841477
 -8.51056361  24.36354312   2.68267721
 -8.41056361  24.38731286   2.69697084
 -8.31056361  24.41113397   2.71129536
 -8.21056361  24.43500596   2.72565047
